0.002,0
0.004,0
0.006,0
0.008,0
0.01,0
0.012,0
0.014,0
0.016,0
0.018,0
0.02,0
0.022,0
0.024,0
0.026,0
0.028,0
0.03,0
0.032,0
0.034,0
0.036,0
0.038,0
0.04,0
0.042,0
0.044,0
0.046,0
0.048,0
0.05,0
0.052,0
0.054,0
0.056,0
0.058,0
0.06,0
0.062,0
0.064,0
0.066,0
0.068,0
0.07,0
0.072,0
0.074,0
0.076,0
0.078,0
0.08,0
0.082,0
0.084,0
0.086,0
0.088,0
0.09,0
0.092,0
0.094,0
0.096,0
0.098,0
0.1,0
0.102,0
0.104,0
0.106,0
0.108,0
0.11,0
0.112,0
0.114,0
0.116,0
0.118,0
0.12,0
0.122,0
0.124,0
0.126,0
0.128,0
0.13,0
0.132,0
0.134,0
0.136,0
0.138,0
0.14,0
0.142,0
0.144,0
0.146,0
0.148,0
0.15,0
0.152,0
0.154,0
0.156,0
0.158,0
0.16,0
0.162,0
0.164,0
0.166,0
0.168,0
0.17,0
0.172,0
0.174,0
0.176,0
0.178,0
0.18,0
0.182,0
0.184,0
0.186,0
0.188,0
0.19,0
0.192,0
0.194,0
0.196,0
0.198,0
0.2,0
0.202,0
0.204,0
0.206,0
0.208,0
0.21,0
0.212,0
0.214,0
0.216,0
0.218,0
0.22,0
0.222,0
0.224,0
0.226,0
0.228,0
0.23,0
0.232,-0.00341122183690235
0.234,-0.00262558322466033
0.236,-0.00195416071886167
0.238,-0.00133094603989153
0.24,-0.000689930908135128
0.242,3.4892956022381e-05
0.244,0.00090953383219583
0.246,0.002
0.248,0.00337229973904968
0.25,0.00509244132895975
0.252,0.00722643304934489
0.254,0.00984028317982005
0.256,0.013
0.258,0.0167025652305922
0.26,0.0206688543566754
0.262,0.0245507163044208
0.264,0.028
0.266,0.0307674817593395
0.268,0.0329996474573879
0.27,0.0349419103588489
0.272,0.0368396837284266
0.274,0.0389383808308247
0.276,0.0414834149307472
0.278,0.0447037730113203
0.28,0.0484506375793874
0.282,0.0521973866655089
0.284,0.0554009720186675
0.286,0.0575183453878461
0.288,0.0580289781310401
0.29,0.0569302926135359
0.292,0.0547376622079105
0.294,0.0519889798957538
0.296,0.0492221386586554
0.298,0.0469605967091873
0.3,0.045395812572507
0.302,0.0443872450863583
0.304,0.0437799183194667
0.306,0.043418856340558
0.308,0.0431490832183577
0.31,0.0428122513891604
0.312,0.0421724657433454
0.314,0.0409162836253769
0.316,0.0387268907472877
0.318,0.0352874728211109
0.32,0.0303049529630062
0.322,0.0240322145840481
0.324,0.0172681013902257
0.326,0.0108351944916548
0.328,0.00553494138601612
0.33,0.00168271648497476
0.332,-0.000892178885819161
0.334,-0.00238157701315089
0.336,-0.00297731018380587
0.338,-0.00287102844511333
0.34,-0.00225019033691159
0.342,-0.00129806289154827
0.344,-0.000197730901914883
0.346,0.000867720839097141
0.348,0.00171520753859633
0.35,0.00216901322331536
0.352,0.0022229047713434
0.354,0.00204013191212593
0.356,0.00179131319473264
0.358,0.00164706716823321
0.36,0.00177801238169734
0.362,0.00233986891277149
0.364,0.00314569199636844
0.366,0.00366587202466734
0.368,0.00335590091842403
0.37,0.00167127059839439
0.372,-0.00193252701466562
0.374,-0.00800000000000012
0.376,-0.0166100813235882
0.378,-0.0259794034983483
0.38,-0.0338590239239344
0.382,-0.038
0.384,-0.0379125877881391
0.386,-0.0401438379977072
0.388,-0.053
0.39,-0.078662121296825
0.392,-0.0948104419120364
0.394,-0.073
0.396,0.00267953893637424
0.398,0.098
0.4,0.178117881186059
0.402,0.255866881452979
0.404,0.356000000000002
0.406,0.491529085386149
0.408,0.628501383609573
0.41,0.721222990028212
0.412,0.724
0.414,0.614895432378527
0.416,0.467
0.418,0.356763489984521
0.42,0.279044292605157
0.422,0.208302948923214
0.424,0.119
0.426,-0.00209794443755174
0.428,-0.119
0.43,-0.193585615626068
0.432,-0.22843984822964
0.434,-0.236324156718392
0.436,-0.23
0.438,-0.219658787808854
0.44,-0.2052117331862
0.442,-0.184
0.444,-0.155658857942114
0.446,-0.129
0.448,-0.112300491341789
0.45,-0.102522462562715
0.452,-0.093799310614784
0.454,-0.0804779678558527
0.456,-0.0618166809782733
0.458,-0.0419850110088955
0.46,-0.0252532012974333
0.462,-0.013295874284988
0.464,-0.00519203150404735
0.466,9.21785958835075e-05
0.468,0.00357365292416462
0.47,0.00587933164404619
0.472,0.00724619817266858
0.474,0.00789428128603703
0.476,0.00804360976015678
0.478,0.00791331043088433
0.48,0.0077017655106561
0.482,0.00758661258848853
0.484,0.00774458731324928
0.486,0.00835242533380609
0.488,0.00958686229902661
0.49,0.0116246338577786
0.492,0.0146303858013305
0.494,0.0184906971961728
0.496,0.0228140803840169
0.498,0.0271969578489757
0.5,0.0312357520751616
0.502,0.0345394846130014
0.504,0.0370069555381451
0.506,0.0388267434514659
0.508,0.0402000260201512
0.51,0.041327980911388
0.512,0.0424117857923639
0.514,0.0436443578015284
0.516,0.0450286219163644
0.518,0.046377510953388
0.52,0.0474956972003777
0.522,0.048187852945112
0.524,0.0482586504753694
0.526,0.0475269495272602
0.528,0.0461379211485282
0.53,0.0445630476985509
0.532,0.0432879989850372
0.534,0.0427984448156964
0.536,0.0435622299291824
0.538,0.0456372224758744
0.54,0.0486713140178778
0.542,0.0522945710482423
0.544,0.0561370600600177
0.546,0.0598288475462536
0.548,0.063
0.55,0.0653997954020015
0.552,0.0672543576837827
0.554,0.0689090222645631
0.556,0.0707091245635624
0.558,0.073
0.56,0.0760418438450347
0.562,0.0797542907775822
0.564,0.0839718353284976
0.566,0.0885289720286356
0.568,0.0932601954088514
0.57,0.0979999999999999
0.572,0.102606599935339
0.574,0.107033087757736
0.576,0.111256275612465
0.578,0.115252975644796
0.58,0.119
0.582,0.122598729830303
0.584,0.126648822315743
0.586,0.131874503643311
0.588,0.139
0.59,0.148378513827812
0.592,0.158879152588792
0.594,0.169
0.596,0.177866375656063
0.598,0.1871125426619
0.6,0.199
0.602,0.214572148952484
0.604,0.23
0.606,0.241349543940772
0.608,0.249139083644794
0.61,0.255
0.612,0.2603014074929
0.614,0.265363355004288
0.616,0.270243625013532
0.618,0.275
0.62,0.279628770959352
0.622,0.283880262952417
0.624,0.287443309556317
0.626,0.290006744348176
0.628,0.291259400905114
0.63,0.290890112804254
0.632,0.288611752104749
0.634,0.284690075952464
0.636,0.279943726579978
0.638,0.275215384701899
0.64,0.271347731032835
0.642,0.269130328555373
0.644,0.268131032415564
0.646,0.266695989922925
0.648,0.26311823065495
0.65,0.255690784189132
0.652,0.242861714585212
0.654,0.226644878994557
0.656,0.212397475996484
0.658,0.20051535038791
0.66,0.186501506428853
0.662,0.170778094453804
0.664,0.158718877570788
0.666,0.151551512429321
0.668,0.146134001492668
0.67,0.139134362259474
0.672,0.127379247889102
0.674,0.111343931737456
0.676,0.0950438725833724
0.678,0.0801591650733843
0.68,0.0659452617774088
0.682,0.0531444079690067
0.684,0.0440177629600561
0.686,0.0391406346833044
0.688,0.0373331219759657
0.69,0.037339010236318
0.692,0.0379020848626392
0.694,0.0377993096416226
0.696,0.0365707512935147
0.698,0.0345195794721149
0.7,0.0319821422196385
0.702,0.0292947875783001
0.704,0.0267849984734534
0.706,0.0245763601426369
0.708,0.0225885601355744
0.71,0.0207324208851281
0.712,0.0189187648241601
0.714,0.0170620913149532
0.716,0.0151614690964613
0.718,0.00988931444740648
0.72,0.00894102469888097
0.722,0.00809283834034213
0.724,0.00749807869645008
0.726,0.00731006909186488
0.728,0.00764470953911039
0.73,0.00846820680216576
0.732,0.002
0.734,0.00337229973904968
0.736,0.00509244132895975
0.738,0.00722643304934489
0.74,0.00984028317982005
0.742,0.013
0.744,0.0167025652305922
0.746,0.0206688543566754
0.748,0.0245507163044208
0.75,0.028
0.752,0.0307674817593395
0.754,0.0329996474573879
0.756,0.0349419103588489
0.758,0.0368396837284266
0.76,0.0389383808308247
0.762,0.0414834149307472
0.764,0.0447037730113203
0.766,0.0484506375793874
0.768,0.0521973866655089
0.77,0.0554009720186675
0.772,0.0575183453878461
0.774,0.0580289781310401
0.776,0.0569302926135359
0.778,0.0547376622079105
0.78,0.0519889798957538
0.782,0.0492221386586554
0.784,0.0469605967091873
0.786,0.045395812572507
0.788,0.0443872450863583
0.79,0.0437799183194667
0.792,0.043418856340558
0.794,0.0431490832183577
0.796,0.0428122513891604
0.798,0.0421724657433454
0.8,0.0409162836253769
0.802,0.0387268907472877
0.804,0.0352874728211109
0.806,0.0303049529630062
0.808,0.0240322145840481
0.81,0.0172681013902257
0.812,0.0108351944916548
0.814,0.00553494138601612
0.816,0.00168271648497476
0.818,-0.000892178885819161
0.82,-0.00238157701315089
0.822,-0.00297731018380587
0.824,-0.00287102844511333
0.826,-0.00225019033691159
0.828,-0.00129806289154827
0.83,-0.000197730901914883
0.832,0.000867720839097141
0.834,0.00171520753859633
0.836,0.00216901322331536
0.838,0.0022229047713434
0.84,0.00204013191212593
0.842,0.00179131319473264
0.844,0.00164706716823321
0.846,0.00177801238169734
0.848,0.00233986891277149
0.85,0.00314569199636844
0.852,0.00366587202466734
0.854,0.00335590091842403
0.856,0.00167127059839439
0.858,-0.00193252701466562
0.86,-0.00800000000000012
0.862,-0.0166100813235882
0.864,-0.0259794034983483
0.866,-0.0338590239239344
0.868,-0.038
0.87,-0.0379125877881391
0.872,-0.0401438379977072
0.874,-0.053
0.876,-0.078662121296825
0.878,-0.0948104419120364
0.88,-0.073
0.882,0.00267953893637424
0.884,0.098
0.886,0.178117881186059
0.888,0.255866881452979
0.89,0.356000000000002
0.892,0.491529085386149
0.894,0.628501383609573
0.896,0.721222990028212
0.898,0.724
0.9,0.614895432378527
0.902,0.467
0.904,0.356763489984521
0.906,0.279044292605157
0.908,0.208302948923214
0.91,0.119
0.912,-0.00209794443755174
0.914,-0.119
0.916,-0.193585615626068
0.918,-0.22843984822964
0.92,-0.236324156718392
0.922,-0.23
0.924,-0.219658787808854
0.926,-0.2052117331862
0.928,-0.184
0.93,-0.155658857942114
0.932,-0.129
0.934,-0.112300491341789
0.936,-0.102522462562715
0.938,-0.093799310614784
0.94,-0.0804779678558527
0.942,-0.0618166809782733
0.944,-0.0419850110088955
0.946,-0.0252532012974333
0.948,-0.013295874284988
0.95,-0.00519203150404735
0.952,9.21785958835075e-05
0.954,0.00357365292416462
0.956,0.00587933164404619
0.958,0.00724619817266858
0.96,0.00789428128603703
0.962,0.00804360976015678
0.964,0.00791331043088433
0.966,0.0077017655106561
0.968,0.00758661258848853
0.97,0.00774458731324928
0.972,0.00835242533380609
0.974,0.00958686229902661
0.976,0.0116246338577786
0.978,0.0146303858013305
0.98,0.0184906971961728
0.982,0.0228140803840169
0.984,0.0271969578489757
0.986,0.0312357520751616
0.988,0.0345394846130014
0.99,0.0370069555381451
0.992,0.0388267434514659
0.994,0.0402000260201512
0.996,0.041327980911388
0.998,0.0424117857923639
1,0.0436443578015284
1.002,0.0450286219163644
1.004,0.046377510953388
1.006,0.0474956972003777
1.008,0.048187852945112
1.01,0.0482586504753694
1.012,0.0475269495272602
1.014,0.0461379211485282
1.016,0.0445630476985509
1.018,0.0432879989850372
1.02,0.0427984448156964
1.022,0.0435622299291824
1.024,0.0456372224758744
1.026,0.0486713140178778
1.028,0.0522945710482423
1.03,0.0561370600600177
1.032,0.0598288475462536
1.034,0.063
1.036,0.0653997954020015
1.038,0.0672543576837827
1.04,0.0689090222645631
1.042,0.0707091245635624
1.044,0.073
1.046,0.0760418438450347
1.048,0.0797542907775822
1.05,0.0839718353284976
1.052,0.0885289720286356
1.054,0.0932601954088514
1.056,0.0979999999999999
1.058,0.102606599935339
1.06,0.107033087757736
1.062,0.111256275612465
1.064,0.115252975644796
1.066,0.119
1.068,0.122598729830303
1.07,0.126648822315743
1.072,0.131874503643311
1.074,0.139
1.076,0.148378513827812
1.078,0.158879152588792
1.08,0.169
1.082,0.177866375656063
1.084,0.1871125426619
1.086,0.199
1.088,0.214572148952484
1.09,0.23
1.092,0.241349543940772
1.094,0.249139083644794
1.096,0.255
1.098,0.2603014074929
1.1,0.265363355004288
1.102,0.270243625013532
1.104,0.275
1.106,0.279628770959352
1.108,0.283880262952417
1.11,0.287443309556317
1.112,0.290006744348176
1.114,0.291259400905114
1.116,0.290890112804254
1.118,0.288611752104749
1.12,0.284690075952464
1.122,0.279943726579978
1.124,0.275215384701899
1.126,0.271347731032835
1.128,0.269130328555373
1.13,0.268131032415564
1.132,0.266695989922925
1.134,0.26311823065495
1.136,0.255690784189132
1.138,0.242861714585212
1.14,0.226644878994557
1.142,0.212397475996484
1.144,0.20051535038791
1.146,0.186501506428853
1.148,0.170778094453804
1.15,0.158718877570788
1.152,0.151551512429321
1.154,0.146134001492668
1.156,0.139134362259474
1.158,0.127379247889102
1.16,0.111343931737456
1.162,0.0950438725833724
1.164,0.0801591650733843
1.166,0.0659452617774088
1.168,0.0531444079690067
1.17,0.0440177629600561
1.172,0.0391406346833044
1.174,0.0373331219759657
1.176,0.037339010236318
1.178,0.0379020848626392
1.18,0.0377993096416226
1.182,0.0365707512935147
1.184,0.0345195794721149
1.186,0.0319821422196385
1.188,0.0292947875783001
1.19,0.0267849984734534
1.192,0.0245763601426369
1.194,0.0225885601355744
1.196,0.0207324208851281
1.198,0.0189187648241601
1.2,0.0170620913149532
1.202,0.0151614690964613
1.204,0.0133005362843088
1.206,0.0115666079235413
1.208,0.00663577722230146
1.21,0.00620344151168128
1.212,0.00604583928113833
1.214,0.00627887054319648
1.216,0.0068687420618348
1.218,3.4892956022381e-05
1.22,0.00090953383219583
1.222,0.002
1.224,0.00337229973904968
1.226,0.00509244132895975
1.228,0.00722643304934489
1.23,0.00984028317982005
1.232,0.013
1.234,0.0167025652305922
1.236,0.0206688543566754
1.238,0.0245507163044208
1.24,0.028
1.242,0.0307674817593395
1.244,0.0329996474573879
1.246,0.0349419103588489
1.248,0.0368396837284266
1.25,0.0389383808308247
1.252,0.0414834149307472
1.254,0.0447037730113203
1.256,0.0484506375793874
1.258,0.0521973866655089
1.26,0.0554009720186675
1.262,0.0575183453878461
1.264,0.0580289781310401
1.266,0.0569302926135359
1.268,0.0547376622079105
1.27,0.0519889798957538
1.272,0.0492221386586554
1.274,0.0469605967091873
1.276,0.045395812572507
1.278,0.0443872450863583
1.28,0.0437799183194667
1.282,0.043418856340558
1.284,0.0431490832183577
1.286,0.0428122513891604
1.288,0.0421724657433454
1.29,0.0409162836253769
1.292,0.0387268907472877
1.294,0.0352874728211109
1.296,0.0303049529630062
1.298,0.0240322145840481
1.3,0.0172681013902257
1.302,0.0108351944916548
1.304,0.00553494138601612
1.306,0.00168271648497476
1.308,-0.000892178885819161
1.31,-0.00238157701315089
1.312,-0.00297731018380587
1.314,-0.00287102844511333
1.316,-0.00225019033691159
1.318,-0.00129806289154827
1.32,-0.000197730901914883
1.322,0.000867720839097141
1.324,0.00171520753859633
1.326,0.00216901322331536
1.328,0.0022229047713434
1.33,0.00204013191212593
1.332,0.00179131319473264
1.334,0.00164706716823321
1.336,0.00177801238169734
1.338,0.00233986891277149
1.34,0.00314569199636844
1.342,0.00366587202466734
1.344,0.00335590091842403
1.346,0.00167127059839439
1.348,-0.00193252701466562
1.35,-0.00800000000000012
1.352,-0.0166100813235882
1.354,-0.0259794034983483
1.356,-0.0338590239239344
1.358,-0.038
1.36,-0.0379125877881391
1.362,-0.0401438379977072
1.364,-0.053
1.366,-0.078662121296825
1.368,-0.0948104419120364
1.37,-0.073
1.372,0.00267953893637424
1.374,0.098
1.376,0.178117881186059
1.378,0.255866881452979
1.38,0.356000000000002
1.382,0.491529085386149
1.384,0.628501383609573
1.386,0.721222990028212
1.388,0.724
1.39,0.614895432378527
1.392,0.467
1.394,0.356763489984521
1.396,0.279044292605157
1.398,0.208302948923214
1.4,0.119
1.402,-0.00209794443755174
1.404,-0.119
1.406,-0.193585615626068
1.408,-0.22843984822964
1.41,-0.236324156718392
1.412,-0.23
1.414,-0.219658787808854
1.416,-0.2052117331862
1.418,-0.184
1.42,-0.155658857942114
1.422,-0.129
1.424,-0.112300491341789
1.426,-0.102522462562715
1.428,-0.093799310614784
1.43,-0.0804779678558527
1.432,-0.0618166809782733
1.434,-0.0419850110088955
1.436,-0.0252532012974333
1.438,-0.013295874284988
1.44,-0.00519203150404735
1.442,9.21785958835075e-05
1.444,0.00357365292416462
1.446,0.00587933164404619
1.448,0.00724619817266858
1.45,0.00789428128603703
1.452,0.00804360976015678
1.454,0.00791331043088433
1.456,0.0077017655106561
1.458,0.00758661258848853
1.46,0.00774458731324928
1.462,0.00835242533380609
1.464,0.00958686229902661
1.466,0.0116246338577786
1.468,0.0146303858013305
1.47,0.0184906971961728
1.472,0.0228140803840169
1.474,0.0271969578489757
1.476,0.0312357520751616
1.478,0.0345394846130014
1.48,0.0370069555381451
1.482,0.0388267434514659
1.484,0.0402000260201512
1.486,0.041327980911388
1.488,0.0424117857923639
1.49,0.0436443578015284
1.492,0.0450286219163644
1.494,0.046377510953388
1.496,0.0474956972003777
1.498,0.048187852945112
1.5,0.0482586504753694
1.502,0.0475269495272602
1.504,0.0461379211485282
1.506,0.0445630476985509
1.508,0.0432879989850372
1.51,0.0427984448156964
1.512,0.0435622299291824
1.514,0.0456372224758744
1.516,0.0486713140178778
1.518,0.0522945710482423
1.52,0.0561370600600177
1.522,0.0598288475462536
1.524,0.063
1.526,0.0653997954020015
1.528,0.0672543576837827
1.53,0.0689090222645631
1.532,0.0707091245635624
1.534,0.073
1.536,0.0760418438450347
1.538,0.0797542907775822
1.54,0.0839718353284976
1.542,0.0885289720286356
1.544,0.0932601954088514
1.546,0.0979999999999999
1.548,0.102606599935339
1.55,0.107033087757736
1.552,0.111256275612465
1.554,0.115252975644796
1.556,0.119
1.558,0.122598729830303
1.56,0.126648822315743
1.562,0.131874503643311
1.564,0.139
1.566,0.148378513827812
1.568,0.158879152588792
1.57,0.169
1.572,0.177866375656063
1.574,0.1871125426619
1.576,0.199
1.578,0.214572148952484
1.58,0.23
1.582,0.241349543940772
1.584,0.249139083644794
1.586,0.255
1.588,0.2603014074929
1.59,0.265363355004288
1.592,0.270243625013532
1.594,0.275
1.596,0.279628770959352
1.598,0.283880262952417
1.6,0.287443309556317
1.602,0.290006744348176
1.604,0.291259400905114
1.606,0.290890112804254
1.608,0.288611752104749
1.61,0.284690075952464
1.612,0.279943726579978
1.614,0.275215384701899
1.616,0.271347731032835
1.618,0.269130328555373
1.62,0.268131032415564
1.622,0.266695989922925
1.624,0.26311823065495
1.626,0.255690784189132
1.628,0.242861714585212
1.63,0.226644878994557
1.632,0.212397475996484
1.634,0.20051535038791
1.636,0.186501506428853
1.638,0.170778094453804
1.64,0.158718877570788
1.642,0.151551512429321
1.644,0.146134001492668
1.646,0.139134362259474
1.648,0.127379247889102
1.65,0.111343931737456
1.652,0.0950438725833724
1.654,0.0801591650733843
1.656,0.0659452617774088
1.658,0.0531444079690067
1.66,0.0440177629600561
1.662,0.0391406346833044
1.664,0.0373331219759657
1.666,0.037339010236318
1.668,0.0379020848626392
1.67,0.0377993096416226
1.672,0.0365707512935147
1.674,0.0345195794721149
1.676,0.0319821422196385
1.678,0.0292947875783001
1.68,0.0267849984734534
1.682,0.0245763601426369
1.684,0.0225885601355744
1.686,0.0207324208851281
1.688,0.0189187648241601
1.69,0.0170620913149532
1.692,0.0151614690964613
1.694,0.0133005362843088
1.696,0.0115666079235413
1.698,0.0100469990592038
1.7,0.00882902473634162
1.702,0.00458877816309766
1.704,0.00498423335842768
1.706,0.00560451225110825
1.708,-0.00133094603989153
1.71,-0.000689930908135128
1.712,3.4892956022381e-05
1.714,0.00090953383219583
1.716,0.002
1.718,0.00337229973904968
1.72,0.00509244132895975
1.722,0.00722643304934489
1.724,0.00984028317982005
1.726,0.013
1.728,0.0167025652305922
1.73,0.0206688543566754
1.732,0.0245507163044208
1.734,0.028
1.736,0.0307674817593395
1.738,0.0329996474573879
1.74,0.0349419103588489
1.742,0.0368396837284266
1.744,0.0389383808308247
1.746,0.0414834149307472
1.748,0.0447037730113203
1.75,0.0484506375793874
1.752,0.0521973866655089
1.754,0.0554009720186675
1.756,0.0575183453878461
1.758,0.0580289781310401
1.76,0.0569302926135359
1.762,0.0547376622079105
1.764,0.0519889798957538
1.766,0.0492221386586554
1.768,0.0469605967091873
1.77,0.045395812572507
1.772,0.0443872450863583
1.774,0.0437799183194667
1.776,0.043418856340558
1.778,0.0431490832183577
1.78,0.0428122513891604
1.782,0.0421724657433454
1.784,0.0409162836253769
1.786,0.0387268907472877
1.788,0.0352874728211109
1.79,0.0303049529630062
1.792,0.0240322145840481
1.794,0.0172681013902257
1.796,0.0108351944916548
1.798,0.00553494138601612
1.8,0.00168271648497476
1.802,-0.000892178885819161
1.804,-0.00238157701315089
1.806,-0.00297731018380587
1.808,-0.00287102844511333
1.81,-0.00225019033691159
1.812,-0.00129806289154827
1.814,-0.000197730901914883
1.816,0.000867720839097141
1.818,0.00171520753859633
1.82,0.00216901322331536
1.822,0.0022229047713434
1.824,0.00204013191212593
1.826,0.00179131319473264
1.828,0.00164706716823321
1.83,0.00177801238169734
1.832,0.00233986891277149
1.834,0.00314569199636844
1.836,0.00366587202466734
1.838,0.00335590091842403
1.84,0.00167127059839439
1.842,-0.00193252701466562
1.844,-0.00800000000000012
1.846,-0.0166100813235882
1.848,-0.0259794034983483
1.85,-0.0338590239239344
1.852,-0.038
1.854,-0.0379125877881391
1.856,-0.0401438379977072
1.858,-0.053
1.86,-0.078662121296825
1.862,-0.0948104419120364
1.864,-0.073
1.866,0.00267953893637424
1.868,0.098
1.87,0.178117881186059
1.872,0.255866881452979
1.874,0.356000000000002
1.876,0.491529085386149
1.878,0.628501383609573
1.88,0.721222990028212
1.882,0.724
1.884,0.614895432378527
1.886,0.467
1.888,0.356763489984521
1.89,0.279044292605157
1.892,0.208302948923214
1.894,0.119
1.896,-0.00209794443755174
1.898,-0.119
1.9,-0.193585615626068
1.902,-0.22843984822964
1.904,-0.236324156718392
1.906,-0.23
1.908,-0.219658787808854
1.91,-0.2052117331862
1.912,-0.184
1.914,-0.155658857942114
1.916,-0.129
1.918,-0.112300491341789
1.92,-0.102522462562715
1.922,-0.093799310614784
1.924,-0.0804779678558527
1.926,-0.0618166809782733
1.928,-0.0419850110088955
1.93,-0.0252532012974333
1.932,-0.013295874284988
1.934,-0.00519203150404735
1.936,9.21785958835075e-05
1.938,0.00357365292416462
1.94,0.00587933164404619
1.942,0.00724619817266858
1.944,0.00789428128603703
1.946,0.00804360976015678
1.948,0.00791331043088433
1.95,0.0077017655106561
1.952,0.00758661258848853
1.954,0.00774458731324928
1.956,0.00835242533380609
1.958,0.00958686229902661
1.96,0.0116246338577786
1.962,0.0146303858013305
1.964,0.0184906971961728
1.966,0.0228140803840169
1.968,0.0271969578489757
1.97,0.0312357520751616
1.972,0.0345394846130014
1.974,0.0370069555381451
1.976,0.0388267434514659
1.978,0.0402000260201512
1.98,0.041327980911388
1.982,0.0424117857923639
1.984,0.0436443578015284
1.986,0.0450286219163644
1.988,0.046377510953388
1.99,0.0474956972003777
1.992,0.048187852945112
1.994,0.0482586504753694
1.996,0.0475269495272602
1.998,0.0461379211485282
2,0.0445630476985509
2.002,0.0432879989850372
2.004,0.0427984448156964
2.006,0.0435622299291824
2.008,0.0456372224758744
2.01,0.0486713140178778
2.012,0.0522945710482423
2.014,0.0561370600600177
2.016,0.0598288475462536
2.018,0.063
2.02,0.0653997954020015
2.022,0.0672543576837827
2.024,0.0689090222645631
2.026,0.0707091245635624
2.028,0.073
2.03,0.0760418438450347
2.032,0.0797542907775822
2.034,0.0839718353284976
2.036,0.0885289720286356
2.038,0.0932601954088514
2.04,0.0979999999999999
2.042,0.102606599935339
2.044,0.107033087757736
2.046,0.111256275612465
2.048,0.115252975644796
2.05,0.119
2.052,0.122598729830303
2.054,0.126648822315743
2.056,0.131874503643311
2.058,0.139
2.06,0.148378513827812
2.062,0.158879152588792
2.064,0.169
2.066,0.177866375656063
2.068,0.1871125426619
2.07,0.199
2.072,0.214572148952484
2.074,0.23
2.076,0.241349543940772
2.078,0.249139083644794
2.08,0.255
2.082,0.2603014074929
2.084,0.265363355004288
2.086,0.270243625013532
2.088,0.275
2.09,0.279628770959352
2.092,0.283880262952417
2.094,0.287443309556317
2.096,0.290006744348176
2.098,0.291259400905114
2.1,0.290890112804254
2.102,0.288611752104749
2.104,0.284690075952464
2.106,0.279943726579978
2.108,0.275215384701899
2.11,0.271347731032835
2.112,0.269130328555373
2.114,0.268131032415564
2.116,0.266695989922925
2.118,0.26311823065495
2.12,0.255690784189132
2.122,0.242861714585212
2.124,0.226644878994557
2.126,0.212397475996484
2.128,0.20051535038791
2.13,0.186501506428853
2.132,0.170778094453804
2.134,0.158718877570788
2.136,0.151551512429321
2.138,0.146134001492668
2.14,0.139134362259474
2.142,0.127379247889102
2.144,0.111343931737456
2.146,0.0950438725833724
2.148,0.0801591650733843
2.15,0.0659452617774088
2.152,0.0531444079690067
2.154,0.0440177629600561
2.156,0.0391406346833044
2.158,0.0373331219759657
2.16,0.037339010236318
2.162,0.0379020848626392
2.164,0.0377993096416226
2.166,0.0365707512935147
2.168,0.0345195794721149
2.17,0.0319821422196385
2.172,0.0292947875783001
2.174,0.0267849984734534
2.176,0.0245763601426369
2.178,0.0225885601355744
2.18,0.0207324208851281
2.182,0.0189187648241601
2.184,0.0170620913149532
2.186,0.0151614690964613
2.188,0.0133005362843088
2.19,0.0115666079235413
2.192,0.0100469990592038
2.194,0.00882902473634162
2.196,0.00800000000000001
2.198,0.00419859474618567
2.2,0.00493308974530959
2.202,-0.00195416071886167
2.204,-0.00133094603989153
2.206,-0.000689930908135128
2.208,3.4892956022381e-05
2.21,0.00090953383219583
2.212,0.002
2.214,0.00337229973904968
2.216,0.00509244132895975
2.218,0.00722643304934489
2.22,0.00984028317982005
2.222,0.013
2.224,0.0167025652305922
2.226,0.0206688543566754
2.228,0.0245507163044208
2.23,0.028
2.232,0.0307674817593395
2.234,0.0329996474573879
2.236,0.0349419103588489
2.238,0.0368396837284266
2.24,0.0389383808308247
2.242,0.0414834149307472
2.244,0.0447037730113203
2.246,0.0484506375793874
2.248,0.0521973866655089
2.25,0.0554009720186675
2.252,0.0575183453878461
2.254,0.0580289781310401
2.256,0.0569302926135359
2.258,0.0547376622079105
2.26,0.0519889798957538
2.262,0.0492221386586554
2.264,0.0469605967091873
2.266,0.045395812572507
2.268,0.0443872450863583
2.27,0.0437799183194667
2.272,0.043418856340558
2.274,0.0431490832183577
2.276,0.0428122513891604
2.278,0.0421724657433454
2.28,0.0409162836253769
2.282,0.0387268907472877
2.284,0.0352874728211109
2.286,0.0303049529630062
2.288,0.0240322145840481
2.29,0.0172681013902257
2.292,0.0108351944916548
2.294,0.00553494138601612
2.296,0.00168271648497476
2.298,-0.000892178885819161
2.3,-0.00238157701315089
2.302,-0.00297731018380587
2.304,-0.00287102844511333
2.306,-0.00225019033691159
2.308,-0.00129806289154827
2.31,-0.000197730901914883
2.312,0.000867720839097141
2.314,0.00171520753859633
2.316,0.00216901322331536
2.318,0.0022229047713434
2.32,0.00204013191212593
2.322,0.00179131319473264
2.324,0.00164706716823321
2.326,0.00177801238169734
2.328,0.00233986891277149
2.33,0.00314569199636844
2.332,0.00366587202466734
2.334,0.00335590091842403
2.336,0.00167127059839439
2.338,-0.00193252701466562
2.34,-0.00800000000000012
2.342,-0.0166100813235882
2.344,-0.0259794034983483
2.346,-0.0338590239239344
2.348,-0.038
2.35,-0.0379125877881391
2.352,-0.0401438379977072
2.354,-0.053
2.356,-0.078662121296825
2.358,-0.0948104419120364
2.36,-0.073
2.362,0.00267953893637424
2.364,0.098
2.366,0.178117881186059
2.368,0.255866881452979
2.37,0.356000000000002
2.372,0.491529085386149
2.374,0.628501383609573
2.376,0.721222990028212
2.378,0.724
2.38,0.614895432378527
2.382,0.467
2.384,0.356763489984521
2.386,0.279044292605157
2.388,0.208302948923214
2.39,0.119
2.392,-0.00209794443755174
2.394,-0.119
2.396,-0.193585615626068
2.398,-0.22843984822964
2.4,-0.236324156718392
2.402,-0.23
2.404,-0.219658787808854
2.406,-0.2052117331862
2.408,-0.184
2.41,-0.155658857942114
2.412,-0.129
2.414,-0.112300491341789
2.416,-0.102522462562715
2.418,-0.093799310614784
2.42,-0.0804779678558527
2.422,-0.0618166809782733
2.424,-0.0419850110088955
2.426,-0.0252532012974333
2.428,-0.013295874284988
2.43,-0.00519203150404735
2.432,9.21785958835075e-05
2.434,0.00357365292416462
2.436,0.00587933164404619
2.438,0.00724619817266858
2.44,0.00789428128603703
2.442,0.00804360976015678
2.444,0.00791331043088433
2.446,0.0077017655106561
2.448,0.00758661258848853
2.45,0.00774458731324928
2.452,0.00835242533380609
2.454,0.00958686229902661
2.456,0.0116246338577786
2.458,0.0146303858013305
2.46,0.0184906971961728
2.462,0.0228140803840169
2.464,0.0271969578489757
2.466,0.0312357520751616
2.468,0.0345394846130014
2.47,0.0370069555381451
2.472,0.0388267434514659
2.474,0.0402000260201512
2.476,0.041327980911388
2.478,0.0424117857923639
2.48,0.0436443578015284
2.482,0.0450286219163644
2.484,0.046377510953388
2.486,0.0474956972003777
2.488,0.048187852945112
2.49,0.0482586504753694
2.492,0.0475269495272602
2.494,0.0461379211485282
2.496,0.0445630476985509
2.498,0.0432879989850372
2.5,0.0427984448156964
2.502,0.0435622299291824
2.504,0.0456372224758744
2.506,0.0486713140178778
2.508,0.0522945710482423
2.51,0.0561370600600177
2.512,0.0598288475462536
2.514,0.063
2.516,0.0653997954020015
2.518,0.0672543576837827
2.52,0.0689090222645631
2.522,0.0707091245635624
2.524,0.073
2.526,0.0760418438450347
2.528,0.0797542907775822
2.53,0.0839718353284976
2.532,0.0885289720286356
2.534,0.0932601954088514
2.536,0.0979999999999999
2.538,0.102606599935339
2.54,0.107033087757736
2.542,0.111256275612465
2.544,0.115252975644796
2.546,0.119
2.548,0.122598729830303
2.55,0.126648822315743
2.552,0.131874503643311
2.554,0.139
2.556,0.148378513827812
2.558,0.158879152588792
2.56,0.169
2.562,0.177866375656063
2.564,0.1871125426619
2.566,0.199
2.568,0.214572148952484
2.57,0.23
2.572,0.241349543940772
2.574,0.249139083644794
2.576,0.255
2.578,0.2603014074929
2.58,0.265363355004288
2.582,0.270243625013532
2.584,0.275
2.586,0.279628770959352
2.588,0.283880262952417
2.59,0.287443309556317
2.592,0.290006744348176
2.594,0.291259400905114
2.596,0.290890112804254
2.598,0.288611752104749
2.6,0.284690075952464
2.602,0.279943726579978
2.604,0.275215384701899
2.606,0.271347731032835
2.608,0.269130328555373
2.61,0.268131032415564
2.612,0.266695989922925
2.614,0.26311823065495
2.616,0.255690784189132
2.618,0.242861714585212
2.62,0.226644878994557
2.622,0.212397475996484
2.624,0.20051535038791
2.626,0.186501506428853
2.628,0.170778094453804
2.63,0.158718877570788
2.632,0.151551512429321
2.634,0.146134001492668
2.636,0.139134362259474
2.638,0.127379247889102
2.64,0.111343931737456
2.642,0.0950438725833724
2.644,0.0801591650733843
2.646,0.0659452617774088
2.648,0.0531444079690067
2.65,0.0440177629600561
2.652,0.0391406346833044
2.654,0.0373331219759657
2.656,0.037339010236318
2.658,0.0379020848626392
2.66,0.0377993096416226
2.662,0.0365707512935147
2.664,0.0345195794721149
2.666,0.0319821422196385
2.668,0.0292947875783001
2.67,0.0267849984734534
2.672,0.0245763601426369
2.674,0.0225885601355744
2.676,0.0207324208851281
2.678,0.0189187648241601
2.68,0.0170620913149532
2.682,0.0151614690964613
2.684,0.0133005362843088
2.686,0.0115666079235413
2.688,0.0100469990592038
2.69,0.00882902473634162
2.692,0.00800000000000001
2.694,0.00760981658308801
2.696,0.00755867296996993
2.698,-0.00341122183690235
2.7,-0.00262558322466033
2.702,-0.00195416071886167
2.704,-0.00133094603989153
2.706,-0.000689930908135128
2.708,3.4892956022381e-05
2.71,0.00090953383219583
2.712,0.002
2.714,0.00337229973904968
2.716,0.00509244132895975
2.718,0.00722643304934489
2.72,0.00984028317982005
2.722,0.013
2.724,0.0167025652305922
2.726,0.0206688543566754
2.728,0.0245507163044208
2.73,0.028
2.732,0.0307674817593395
2.734,0.0329996474573879
2.736,0.0349419103588489
2.738,0.0368396837284266
2.74,0.0389383808308247
2.742,0.0414834149307472
2.744,0.0447037730113203
2.746,0.0484506375793874
2.748,0.0521973866655089
2.75,0.0554009720186675
2.752,0.0575183453878461
2.754,0.0580289781310401
2.756,0.0569302926135359
2.758,0.0547376622079105
2.76,0.0519889798957538
2.762,0.0492221386586554
2.764,0.0469605967091873
2.766,0.045395812572507
2.768,0.0443872450863583
2.77,0.0437799183194667
2.772,0.043418856340558
2.774,0.0431490832183577
2.776,0.0428122513891604
2.778,0.0421724657433454
2.78,0.0409162836253769
2.782,0.0387268907472877
2.784,0.0352874728211109
2.786,0.0303049529630062
2.788,0.0240322145840481
2.79,0.0172681013902257
2.792,0.0108351944916548
2.794,0.00553494138601612
2.796,0.00168271648497476
2.798,-0.000892178885819161
2.8,-0.00238157701315089
2.802,-0.00297731018380587
2.804,-0.00287102844511333
2.806,-0.00225019033691159
2.808,-0.00129806289154827
2.81,-0.000197730901914883
2.812,0.000867720839097141
2.814,0.00171520753859633
2.816,0.00216901322331536
2.818,0.0022229047713434
2.82,0.00204013191212593
2.822,0.00179131319473264
2.824,0.00164706716823321
2.826,0.00177801238169734
2.828,0.00233986891277149
2.83,0.00314569199636844
2.832,0.00366587202466734
2.834,0.00335590091842403
2.836,0.00167127059839439
2.838,-0.00193252701466562
2.84,-0.00800000000000012
2.842,-0.0166100813235882
2.844,-0.0259794034983483
2.846,-0.0338590239239344
2.848,-0.038
2.85,-0.0379125877881391
2.852,-0.0401438379977072
2.854,-0.053
2.856,-0.078662121296825
2.858,-0.0948104419120364
2.86,-0.073
2.862,0.00267953893637424
2.864,0.098
2.866,0.178117881186059
2.868,0.255866881452979
2.87,0.356000000000002
2.872,0.491529085386149
2.874,0.628501383609573
2.876,0.721222990028212
2.878,0.724
2.88,0.614895432378527
2.882,0.467
2.884,0.356763489984521
2.886,0.279044292605157
2.888,0.208302948923214
2.89,0.119
2.892,-0.00209794443755174
2.894,-0.119
2.896,-0.193585615626068
2.898,-0.22843984822964
2.9,-0.236324156718392
2.902,-0.23
2.904,-0.219658787808854
2.906,-0.2052117331862
2.908,-0.184
2.91,-0.155658857942114
2.912,-0.129
2.914,-0.112300491341789
2.916,-0.102522462562715
2.918,-0.093799310614784
2.92,-0.0804779678558527
2.922,-0.0618166809782733
2.924,-0.0419850110088955
2.926,-0.0252532012974333
2.928,-0.013295874284988
2.93,-0.00519203150404735
2.932,9.21785958835075e-05
2.934,0.00357365292416462
2.936,0.00587933164404619
2.938,0.00724619817266858
2.94,0.00789428128603703
2.942,0.00804360976015678
2.944,0.00791331043088433
2.946,0.0077017655106561
2.948,0.00758661258848853
2.95,0.00774458731324928
2.952,0.00835242533380609
2.954,0.00958686229902661
2.956,0.0116246338577786
2.958,0.0146303858013305
2.96,0.0184906971961728
2.962,0.0228140803840169
2.964,0.0271969578489757
2.966,0.0312357520751616
2.968,0.0345394846130014
2.97,0.0370069555381451
2.972,0.0388267434514659
2.974,0.0402000260201512
2.976,0.041327980911388
2.978,0.0424117857923639
2.98,0.0436443578015284
2.982,0.0450286219163644
2.984,0.046377510953388
2.986,0.0474956972003777
2.988,0.048187852945112
2.99,0.0482586504753694
2.992,0.0475269495272602
2.994,0.0461379211485282
2.996,0.0445630476985509
2.998,0.0432879989850372
3,0.0427984448156964
3.002,0.0435622299291824
3.004,0.0456372224758744
3.006,0.0486713140178778
3.008,0.0522945710482423
3.01,0.0561370600600177
3.012,0.0598288475462536
3.014,0.063
3.016,0.0653997954020015
3.018,0.0672543576837827
3.02,0.0689090222645631
3.022,0.0707091245635624
3.024,0.073
3.026,0.0760418438450347
3.028,0.0797542907775822
3.03,0.0839718353284976
3.032,0.0885289720286356
3.034,0.0932601954088514
3.036,0.0979999999999999
3.038,0.102606599935339
3.04,0.107033087757736
3.042,0.111256275612465
3.044,0.115252975644796
3.046,0.119
3.048,0.122598729830303
3.05,0.126648822315743
3.052,0.131874503643311
3.054,0.139
3.056,0.148378513827812
3.058,0.158879152588792
3.06,0.169
3.062,0.177866375656063
3.064,0.1871125426619
3.066,0.199
3.068,0.214572148952484
3.07,0.23
3.072,0.241349543940772
3.074,0.249139083644794
3.076,0.255
3.078,0.2603014074929
3.08,0.265363355004288
3.082,0.270243625013532
3.084,0.275
3.086,0.279628770959352
3.088,0.283880262952417
3.09,0.287443309556317
3.092,0.290006744348176
3.094,0.291259400905114
3.096,0.290890112804254
3.098,0.288611752104749
3.1,0.284690075952464
3.102,0.279943726579978
3.104,0.275215384701899
3.106,0.271347731032835
3.108,0.269130328555373
3.11,0.268131032415564
3.112,0.266695989922925
3.114,0.26311823065495
3.116,0.255690784189132
3.118,0.242861714585212
3.12,0.226644878994557
3.122,0.212397475996484
3.124,0.20051535038791
3.126,0.186501506428853
3.128,0.170778094453804
3.13,0.158718877570788
3.132,0.151551512429321
3.134,0.146134001492668
3.136,0.139134362259474
3.138,0.127379247889102
3.14,0.111343931737456
3.142,0.0950438725833724
3.144,0.0801591650733843
3.146,0.0659452617774088
3.148,0.0531444079690067
3.15,0.0440177629600561
3.152,0.0391406346833044
3.154,0.0373331219759657
3.156,0.037339010236318
3.158,0.0379020848626392
3.16,0.0377993096416226
3.162,0.0365707512935147
3.164,0.0345195794721149
3.166,0.0319821422196385
3.168,0.0292947875783001
3.17,0.0267849984734534
3.172,0.0245763601426369
3.174,0.0225885601355744
3.176,0.0207324208851281
3.178,0.0189187648241601
3.18,0.0170620913149532
3.182,0.0151614690964613
3.184,0.0133005362843088
3.186,0.0115666079235413
3.188,0.0100469990592038
3.19,0.00882902473634162
3.192,0.00800000000000001
3.194,0.00760981658308801
3.196,0.00755867296996993
3.198,0
3.2,-0.00341122183690235
3.202,-0.00262558322466033
3.204,-0.00195416071886167
3.206,-0.00133094603989153
3.208,-0.000689930908135128
3.21,3.4892956022381e-05
3.212,0.00090953383219583
3.214,0.002
3.216,0.00337229973904968
3.218,0.00509244132895975
3.22,0.00722643304934489
3.222,0.00984028317982005
3.224,0.013
3.226,0.0167025652305922
3.228,0.0206688543566754
3.23,0.0245507163044208
3.232,0.028
3.234,0.0307674817593395
3.236,0.0329996474573879
3.238,0.0349419103588489
3.24,0.0368396837284266
3.242,0.0389383808308247
3.244,0.0414834149307472
3.246,0.0447037730113203
3.248,0.0484506375793874
3.25,0.0521973866655089
3.252,0.0554009720186675
3.254,0.0575183453878461
3.256,0.0580289781310401
3.258,0.0569302926135359
3.26,0.0547376622079105
3.262,0.0519889798957538
3.264,0.0492221386586554
3.266,0.0469605967091873
3.268,0.045395812572507
3.27,0.0443872450863583
3.272,0.0437799183194667
3.274,0.043418856340558
3.276,0.0431490832183577
3.278,0.0428122513891604
3.28,0.0421724657433454
3.282,0.0409162836253769
3.284,0.0387268907472877
3.286,0.0352874728211109
3.288,0.0303049529630062
3.29,0.0240322145840481
3.292,0.0172681013902257
3.294,0.0108351944916548
3.296,0.00553494138601612
3.298,0.00168271648497476
3.3,-0.000892178885819161
3.302,-0.00238157701315089
3.304,-0.00297731018380587
3.306,-0.00287102844511333
3.308,-0.00225019033691159
3.31,-0.00129806289154827
3.312,-0.000197730901914883
3.314,0.000867720839097141
3.316,0.00171520753859633
3.318,0.00216901322331536
3.32,0.0022229047713434
3.322,0.00204013191212593
3.324,0.00179131319473264
3.326,0.00164706716823321
3.328,0.00177801238169734
3.33,0.00233986891277149
3.332,0.00314569199636844
3.334,0.00366587202466734
3.336,0.00335590091842403
3.338,0.00167127059839439
3.34,-0.00193252701466562
3.342,-0.00800000000000012
3.344,-0.0166100813235882
3.346,-0.0259794034983483
3.348,-0.0338590239239344
3.35,-0.038
3.352,-0.0379125877881391
3.354,-0.0401438379977072
3.356,-0.053
3.358,-0.078662121296825
3.36,-0.0948104419120364
3.362,-0.073
3.364,0.00267953893637424
3.366,0.098
3.368,0.178117881186059
3.37,0.255866881452979
3.372,0.356000000000002
3.374,0.491529085386149
3.376,0.628501383609573
3.378,0.721222990028212
3.38,0.724
3.382,0.614895432378527
3.384,0.467
3.386,0.356763489984521
3.388,0.279044292605157
3.39,0.208302948923214
3.392,0.119
3.394,-0.00209794443755174
3.396,-0.119
3.398,-0.193585615626068
3.4,-0.22843984822964
3.402,-0.236324156718392
3.404,-0.23
3.406,-0.219658787808854
3.408,-0.2052117331862
3.41,-0.184
3.412,-0.155658857942114
3.414,-0.129
3.416,-0.112300491341789
3.418,-0.102522462562715
3.42,-0.093799310614784
3.422,-0.0804779678558527
3.424,-0.0618166809782733
3.426,-0.0419850110088955
3.428,-0.0252532012974333
3.43,-0.013295874284988
3.432,-0.00519203150404735
3.434,9.21785958835075e-05
3.436,0.00357365292416462
3.438,0.00587933164404619
3.44,0.00724619817266858
3.442,0.00789428128603703
3.444,0.00804360976015678
3.446,0.00791331043088433
3.448,0.0077017655106561
3.45,0.00758661258848853
3.452,0.00774458731324928
3.454,0.00835242533380609
3.456,0.00958686229902661
3.458,0.0116246338577786
3.46,0.0146303858013305
3.462,0.0184906971961728
3.464,0.0228140803840169
3.466,0.0271969578489757
3.468,0.0312357520751616
3.47,0.0345394846130014
3.472,0.0370069555381451
3.474,0.0388267434514659
3.476,0.0402000260201512
3.478,0.041327980911388
3.48,0.0424117857923639
3.482,0.0436443578015284
3.484,0.0450286219163644
3.486,0.046377510953388
3.488,0.0474956972003777
3.49,0.048187852945112
3.492,0.0482586504753694
3.494,0.0475269495272602
3.496,0.0461379211485282
3.498,0.0445630476985509
3.5,0.0432879989850372
3.502,0.0427984448156964
3.504,0.0435622299291824
3.506,0.0456372224758744
3.508,0.0486713140178778
3.51,0.0522945710482423
3.512,0.0561370600600177
3.514,0.0598288475462536
3.516,0.063
3.518,0.0653997954020015
3.52,0.0672543576837827
3.522,0.0689090222645631
3.524,0.0707091245635624
3.526,0.073
3.528,0.0760418438450347
3.53,0.0797542907775822
3.532,0.0839718353284976
3.534,0.0885289720286356
3.536,0.0932601954088514
3.538,0.0979999999999999
3.54,0.102606599935339
3.542,0.107033087757736
3.544,0.111256275612465
3.546,0.115252975644796
3.548,0.119
3.55,0.122598729830303
3.552,0.126648822315743
3.554,0.131874503643311
3.556,0.139
3.558,0.148378513827812
3.56,0.158879152588792
3.562,0.169
3.564,0.177866375656063
3.566,0.1871125426619
3.568,0.199
3.57,0.214572148952484
3.572,0.23
3.574,0.241349543940772
3.576,0.249139083644794
3.578,0.255
3.58,0.2603014074929
3.582,0.265363355004288
3.584,0.270243625013532
3.586,0.275
3.588,0.279628770959352
3.59,0.283880262952417
3.592,0.287443309556317
3.594,0.290006744348176
3.596,0.291259400905114
3.598,0.290890112804254
3.6,0.288611752104749
3.602,0.284690075952464
3.604,0.279943726579978
3.606,0.275215384701899
3.608,0.271347731032835
3.61,0.269130328555373
3.612,0.268131032415564
3.614,0.266695989922925
3.616,0.26311823065495
3.618,0.255690784189132
3.62,0.242861714585212
3.622,0.226644878994557
3.624,0.212397475996484
3.626,0.20051535038791
3.628,0.186501506428853
3.63,0.170778094453804
3.632,0.158718877570788
3.634,0.151551512429321
3.636,0.146134001492668
3.638,0.139134362259474
3.64,0.127379247889102
3.642,0.111343931737456
3.644,0.0950438725833724
3.646,0.0801591650733843
3.648,0.0659452617774088
3.65,0.0531444079690067
3.652,0.0440177629600561
3.654,0.0391406346833044
3.656,0.0373331219759657
3.658,0.037339010236318
3.66,0.0379020848626392
3.662,0.0377993096416226
3.664,0.0365707512935147
3.666,0.0345195794721149
3.668,0.0319821422196385
3.67,0.0292947875783001
3.672,0.0267849984734534
3.674,0.0245763601426369
3.676,0.0225885601355744
3.678,0.0207324208851281
3.68,0.0189187648241601
3.682,0.0170620913149532
3.684,0.0151614690964613
3.686,0.0133005362843088
3.688,0.0115666079235413
3.69,0.0100469990592038
3.692,0.00882902473634162
3.694,0.00800000000000001
3.696,0.00760981658308801
3.698,0.00755867296996993
3.7,0
3.702,0
3.704,-0.00341122183690235
3.706,-0.00262558322466033
3.708,-0.00195416071886167
3.71,-0.00133094603989153
3.712,-0.000689930908135128
3.714,3.4892956022381e-05
3.716,0.00090953383219583
3.718,0.002
3.72,0.00337229973904968
3.722,0.00509244132895975
3.724,0.00722643304934489
3.726,0.00984028317982005
3.728,0.013
3.73,0.0167025652305922
3.732,0.0206688543566754
3.734,0.0245507163044208
3.736,0.028
3.738,0.0307674817593395
3.74,0.0329996474573879
3.742,0.0349419103588489
3.744,0.0368396837284266
3.746,0.0389383808308247
3.748,0.0414834149307472
3.75,0.0447037730113203
3.752,0.0484506375793874
3.754,0.0521973866655089
3.756,0.0554009720186675
3.758,0.0575183453878461
3.76,0.0580289781310401
3.762,0.0569302926135359
3.764,0.0547376622079105
3.766,0.0519889798957538
3.768,0.0492221386586554
3.77,0.0469605967091873
3.772,0.045395812572507
3.774,0.0443872450863583
3.776,0.0437799183194667
3.778,0.043418856340558
3.78,0.0431490832183577
3.782,0.0428122513891604
3.784,0.0421724657433454
3.786,0.0409162836253769
3.788,0.0387268907472877
3.79,0.0352874728211109
3.792,0.0303049529630062
3.794,0.0240322145840481
3.796,0.0172681013902257
3.798,0.0108351944916548
3.8,0.00553494138601612
3.802,0.00168271648497476
3.804,-0.000892178885819161
3.806,-0.00238157701315089
3.808,-0.00297731018380587
3.81,-0.00287102844511333
3.812,-0.00225019033691159
3.814,-0.00129806289154827
3.816,-0.000197730901914883
3.818,0.000867720839097141
3.82,0.00171520753859633
3.822,0.00216901322331536
3.824,0.0022229047713434
3.826,0.00204013191212593
3.828,0.00179131319473264
3.83,0.00164706716823321
3.832,0.00177801238169734
3.834,0.00233986891277149
3.836,0.00314569199636844
3.838,0.00366587202466734
3.84,0.00335590091842403
3.842,0.00167127059839439
3.844,-0.00193252701466562
3.846,-0.00800000000000012
3.848,-0.0166100813235882
3.85,-0.0259794034983483
3.852,-0.0338590239239344
3.854,-0.038
3.856,-0.0379125877881391
3.858,-0.0401438379977072
3.86,-0.053
3.862,-0.078662121296825
3.864,-0.0948104419120364
3.866,-0.073
3.868,0.00267953893637424
3.87,0.098
3.872,0.178117881186059
3.874,0.255866881452979
3.876,0.356000000000002
3.878,0.491529085386149
3.88,0.628501383609573
3.882,0.721222990028212
3.884,0.724
3.886,0.614895432378527
3.888,0.467
3.89,0.356763489984521
3.892,0.279044292605157
3.894,0.208302948923214
3.896,0.119
3.898,-0.00209794443755174
3.9,-0.119
3.902,-0.193585615626068
3.904,-0.22843984822964
3.906,-0.236324156718392
3.908,-0.23
3.91,-0.219658787808854
3.912,-0.2052117331862
3.914,-0.184
3.916,-0.155658857942114
3.918,-0.129
3.92,-0.112300491341789
3.922,-0.102522462562715
3.924,-0.093799310614784
3.926,-0.0804779678558527
3.928,-0.0618166809782733
3.93,-0.0419850110088955
3.932,-0.0252532012974333
3.934,-0.013295874284988
3.936,-0.00519203150404735
3.938,9.21785958835075e-05
3.94,0.00357365292416462
3.942,0.00587933164404619
3.944,0.00724619817266858
3.946,0.00789428128603703
3.948,0.00804360976015678
3.95,0.00791331043088433
3.952,0.0077017655106561
3.954,0.00758661258848853
3.956,0.00774458731324928
3.958,0.00835242533380609
3.96,0.00958686229902661
3.962,0.0116246338577786
3.964,0.0146303858013305
3.966,0.0184906971961728
3.968,0.0228140803840169
3.97,0.0271969578489757
3.972,0.0312357520751616
3.974,0.0345394846130014
3.976,0.0370069555381451
3.978,0.0388267434514659
3.98,0.0402000260201512
3.982,0.041327980911388
3.984,0.0424117857923639
3.986,0.0436443578015284
3.988,0.0450286219163644
3.99,0.046377510953388
3.992,0.0474956972003777
3.994,0.048187852945112
3.996,0.0482586504753694
3.998,0.0475269495272602
4,0.0461379211485282
4.002,0.0445630476985509
4.004,0.0432879989850372
4.006,0.0427984448156964
4.008,0.0435622299291824
4.01,0.0456372224758744
4.012,0.0486713140178778
4.014,0.0522945710482423
4.016,0.0561370600600177
4.018,0.0598288475462536
4.02,0.063
4.022,0.0653997954020015
4.024,0.0672543576837827
4.026,0.0689090222645631
4.028,0.0707091245635624
4.03,0.073
4.032,0.0760418438450347
4.034,0.0797542907775822
4.036,0.0839718353284976
4.038,0.0885289720286356
4.04,0.0932601954088514
4.042,0.0979999999999999
4.044,0.102606599935339
4.046,0.107033087757736
4.048,0.111256275612465
4.05,0.115252975644796
4.052,0.119
4.054,0.122598729830303
4.056,0.126648822315743
4.058,0.131874503643311
4.06,0.139
4.062,0.148378513827812
4.064,0.158879152588792
4.066,0.169
4.068,0.177866375656063
4.07,0.1871125426619
4.072,0.199
4.074,0.214572148952484
4.076,0.23
4.078,0.241349543940772
4.08,0.249139083644794
4.082,0.255
4.084,0.2603014074929
4.086,0.265363355004288
4.088,0.270243625013532
4.09,0.275
4.092,0.279628770959352
4.094,0.283880262952417
4.096,0.287443309556317
4.098,0.290006744348176
4.1,0.291259400905114
4.102,0.290890112804254
4.104,0.288611752104749
4.106,0.284690075952464
4.108,0.279943726579978
4.11,0.275215384701899
4.112,0.271347731032835
4.114,0.269130328555373
4.116,0.268131032415564
4.118,0.266695989922925
4.12,0.26311823065495
4.122,0.255690784189132
4.124,0.242861714585212
4.126,0.226644878994557
4.128,0.212397475996484
4.13,0.20051535038791
4.132,0.186501506428853
4.134,0.170778094453804
4.136,0.158718877570788
4.138,0.151551512429321
4.14,0.146134001492668
4.142,0.139134362259474
4.144,0.127379247889102
4.146,0.111343931737456
4.148,0.0950438725833724
4.15,0.0801591650733843
4.152,0.0659452617774088
4.154,0.0531444079690067
4.156,0.0440177629600561
4.158,0.0391406346833044
4.16,0.0373331219759657
4.162,0.037339010236318
4.164,0.0379020848626392
4.166,0.0377993096416226
4.168,0.0365707512935147
4.17,0.0345195794721149
4.172,0.0319821422196385
4.174,0.0292947875783001
4.176,0.0267849984734534
4.178,0.0245763601426369
4.18,0.0225885601355744
4.182,0.0207324208851281
4.184,0.0189187648241601
4.186,0.0170620913149532
4.188,0.0151614690964613
4.19,0.0133005362843088
4.192,0.0115666079235413
4.194,0.0100469990592038
4.196,0.00882902473634162
4.198,0.00800000000000001
4.2,0.00760981658308801
4.202,0.00755867296996993
4.204,0
4.206,0
4.208,-0.00341122183690235
4.21,-0.00262558322466033
4.212,-0.00195416071886167
4.214,-0.00133094603989153
4.216,-0.000689930908135128
4.218,3.4892956022381e-05
4.22,0.00090953383219583
4.222,0.002
4.224,0.00337229973904968
4.226,0.00509244132895975
4.228,0.00722643304934489
4.23,0.00984028317982005
4.232,0.013
4.234,0.0167025652305922
4.236,0.0206688543566754
4.238,0.0245507163044208
4.24,0.028
4.242,0.0307674817593395
4.244,0.0329996474573879
4.246,0.0349419103588489
4.248,0.0368396837284266
4.25,0.0389383808308247
4.252,0.0414834149307472
4.254,0.0447037730113203
4.256,0.0484506375793874
4.258,0.0521973866655089
4.26,0.0554009720186675
4.262,0.0575183453878461
4.264,0.0580289781310401
4.266,0.0569302926135359
4.268,0.0547376622079105
4.27,0.0519889798957538
4.272,0.0492221386586554
4.274,0.0469605967091873
4.276,0.045395812572507
4.278,0.0443872450863583
4.28,0.0437799183194667
4.282,0.043418856340558
4.284,0.0431490832183577
4.286,0.0428122513891604
4.288,0.0421724657433454
4.29,0.0409162836253769
4.292,0.0387268907472877
4.294,0.0352874728211109
4.296,0.0303049529630062
4.298,0.0240322145840481
4.3,0.0172681013902257
4.302,0.0108351944916548
4.304,0.00553494138601612
4.306,0.00168271648497476
4.308,-0.000892178885819161
4.31,-0.00238157701315089
4.312,-0.00297731018380587
4.314,-0.00287102844511333
4.316,-0.00225019033691159
4.318,-0.00129806289154827
4.32,-0.000197730901914883
4.322,0.000867720839097141
4.324,0.00171520753859633
4.326,0.00216901322331536
4.328,0.0022229047713434
4.33,0.00204013191212593
4.332,0.00179131319473264
4.334,0.00164706716823321
4.336,0.00177801238169734
4.338,0.00233986891277149
4.34,0.00314569199636844
4.342,0.00366587202466734
4.344,0.00335590091842403
4.346,0.00167127059839439
4.348,-0.00193252701466562
4.35,-0.00800000000000012
4.352,-0.0166100813235882
4.354,-0.0259794034983483
4.356,-0.0338590239239344
4.358,-0.038
4.36,-0.0379125877881391
4.362,-0.0401438379977072
4.364,-0.053
4.366,-0.078662121296825
4.368,-0.0948104419120364
4.37,-0.073
4.372,0.00267953893637424
4.374,0.098
4.376,0.178117881186059
4.378,0.255866881452979
4.38,0.356000000000002
4.382,0.491529085386149
4.384,0.628501383609573
4.386,0.721222990028212
4.388,0.724
4.39,0.614895432378527
4.392,0.467
4.394,0.356763489984521
4.396,0.279044292605157
4.398,0.208302948923214
4.4,0.119
4.402,-0.00209794443755174
4.404,-0.119
4.406,-0.193585615626068
4.408,-0.22843984822964
4.41,-0.236324156718392
4.412,-0.23
4.414,-0.219658787808854
4.416,-0.2052117331862
4.418,-0.184
4.42,-0.155658857942114
4.422,-0.129
4.424,-0.112300491341789
4.426,-0.102522462562715
4.428,-0.093799310614784
4.43,-0.0804779678558527
4.432,-0.0618166809782733
4.434,-0.0419850110088955
4.436,-0.0252532012974333
4.438,-0.013295874284988
4.44,-0.00519203150404735
4.442,9.21785958835075e-05
4.444,0.00357365292416462
4.446,0.00587933164404619
4.448,0.00724619817266858
4.45,0.00789428128603703
4.452,0.00804360976015678
4.454,0.00791331043088433
4.456,0.0077017655106561
4.458,0.00758661258848853
4.46,0.00774458731324928
4.462,0.00835242533380609
4.464,0.00958686229902661
4.466,0.0116246338577786
4.468,0.0146303858013305
4.47,0.0184906971961728
4.472,0.0228140803840169
4.474,0.0271969578489757
4.476,0.0312357520751616
4.478,0.0345394846130014
4.48,0.0370069555381451
4.482,0.0388267434514659
4.484,0.0402000260201512
4.486,0.041327980911388
4.488,0.0424117857923639
4.49,0.0436443578015284
4.492,0.0450286219163644
4.494,0.046377510953388
4.496,0.0474956972003777
4.498,0.048187852945112
4.5,0.0482586504753694
4.502,0.0475269495272602
4.504,0.0461379211485282
4.506,0.0445630476985509
4.508,0.0432879989850372
4.51,0.0427984448156964
4.512,0.0435622299291824
4.514,0.0456372224758744
4.516,0.0486713140178778
4.518,0.0522945710482423
4.52,0.0561370600600177
4.522,0.0598288475462536
4.524,0.063
4.526,0.0653997954020015
4.528,0.0672543576837827
4.53,0.0689090222645631
4.532,0.0707091245635624
4.534,0.073
4.536,0.0760418438450347
4.538,0.0797542907775822
4.54,0.0839718353284976
4.542,0.0885289720286356
4.544,0.0932601954088514
4.546,0.0979999999999999
4.548,0.102606599935339
4.55,0.107033087757736
4.552,0.111256275612465
4.554,0.115252975644796
4.556,0.119
4.558,0.122598729830303
4.56,0.126648822315743
4.562,0.131874503643311
4.564,0.139
4.566,0.148378513827812
4.568,0.158879152588792
4.57,0.169
4.572,0.177866375656063
4.574,0.1871125426619
4.576,0.199
4.578,0.214572148952484
4.58,0.23
4.582,0.241349543940772
4.584,0.249139083644794
4.586,0.255
4.588,0.2603014074929
4.59,0.265363355004288
4.592,0.270243625013532
4.594,0.275
4.596,0.279628770959352
4.598,0.283880262952417
4.6,0.287443309556317
4.602,0.290006744348176
4.604,0.291259400905114
4.606,0.290890112804254
4.608,0.288611752104749
4.61,0.284690075952464
4.612,0.279943726579978
4.614,0.275215384701899
4.616,0.271347731032835
4.618,0.269130328555373
4.62,0.268131032415564
4.622,0.266695989922925
4.624,0.26311823065495
4.626,0.255690784189132
4.628,0.242861714585212
4.63,0.226644878994557
4.632,0.212397475996484
4.634,0.20051535038791
4.636,0.186501506428853
4.638,0.170778094453804
4.64,0.158718877570788
4.642,0.151551512429321
4.644,0.146134001492668
4.646,0.139134362259474
4.648,0.127379247889102
4.65,0.111343931737456
4.652,0.0950438725833724
4.654,0.0801591650733843
4.656,0.0659452617774088
4.658,0.0531444079690067
4.66,0.0440177629600561
4.662,0.0391406346833044
4.664,0.0373331219759657
4.666,0.037339010236318
4.668,0.0379020848626392
4.67,0.0377993096416226
4.672,0.0365707512935147
4.674,0.0345195794721149
4.676,0.0319821422196385
4.678,0.0292947875783001
4.68,0.0267849984734534
4.682,0.0245763601426369
4.684,0.0225885601355744
4.686,0.0207324208851281
4.688,0.0189187648241601
4.69,0.0170620913149532
4.692,0.0151614690964613
4.694,0.0133005362843088
4.696,0.0115666079235413
4.698,0.0100469990592038
4.7,0.00882902473634162
4.702,0.00800000000000001
4.704,0.00760981658308801
4.706,0.00755867296996993
4.708,0
4.71,0
4.712,0
4.714,-0.00341122183690235
4.716,-0.00262558322466033
4.718,-0.00195416071886167
4.72,-0.00133094603989153
4.722,-0.000689930908135128
4.724,3.4892956022381e-05
4.726,0.00090953383219583
4.728,0.002
4.73,0.00337229973904968
4.732,0.00509244132895975
4.734,0.00722643304934489
4.736,0.00984028317982005
4.738,0.013
4.74,0.0167025652305922
4.742,0.0206688543566754
4.744,0.0245507163044208
4.746,0.028
4.748,0.0307674817593395
4.75,0.0329996474573879
4.752,0.0349419103588489
4.754,0.0368396837284266
4.756,0.0389383808308247
4.758,0.0414834149307472
4.76,0.0447037730113203
4.762,0.0484506375793874
4.764,0.0521973866655089
4.766,0.0554009720186675
4.768,0.0575183453878461
4.77,0.0580289781310401
4.772,0.0569302926135359
4.774,0.0547376622079105
4.776,0.0519889798957538
4.778,0.0492221386586554
4.78,0.0469605967091873
4.782,0.045395812572507
4.784,0.0443872450863583
4.786,0.0437799183194667
4.788,0.043418856340558
4.79,0.0431490832183577
4.792,0.0428122513891604
4.794,0.0421724657433454
4.796,0.0409162836253769
4.798,0.0387268907472877
4.8,0.0352874728211109
4.802,0.0303049529630062
4.804,0.0240322145840481
4.806,0.0172681013902257
4.808,0.0108351944916548
4.81,0.00553494138601612
4.812,0.00168271648497476
4.814,-0.000892178885819161
4.816,-0.00238157701315089
4.818,-0.00297731018380587
4.82,-0.00287102844511333
4.822,-0.00225019033691159
4.824,-0.00129806289154827
4.826,-0.000197730901914883
4.828,0.000867720839097141
4.83,0.00171520753859633
4.832,0.00216901322331536
4.834,0.0022229047713434
4.836,0.00204013191212593
4.838,0.00179131319473264
4.84,0.00164706716823321
4.842,0.00177801238169734
4.844,0.00233986891277149
4.846,0.00314569199636844
4.848,0.00366587202466734
4.85,0.00335590091842403
4.852,0.00167127059839439
4.854,-0.00193252701466562
4.856,-0.00800000000000012
4.858,-0.0166100813235882
4.86,-0.0259794034983483
4.862,-0.0338590239239344
4.864,-0.038
4.866,-0.0379125877881391
4.868,-0.0401438379977072
4.87,-0.053
4.872,-0.078662121296825
4.874,-0.0948104419120364
4.876,-0.073
4.878,0.00267953893637424
4.88,0.098
4.882,0.178117881186059
4.884,0.255866881452979
4.886,0.356000000000002
4.888,0.491529085386149
4.89,0.628501383609573
4.892,0.721222990028212
4.894,0.724
4.896,0.614895432378527
4.898,0.467
4.9,0.356763489984521
4.902,0.279044292605157
4.904,0.208302948923214
4.906,0.119
4.908,-0.00209794443755174
4.91,-0.119
4.912,-0.193585615626068
4.914,-0.22843984822964
4.916,-0.236324156718392
4.918,-0.23
4.92,-0.219658787808854
4.922,-0.2052117331862
4.924,-0.184
4.926,-0.155658857942114
4.928,-0.129
4.93,-0.112300491341789
4.932,-0.102522462562715
4.934,-0.093799310614784
4.936,-0.0804779678558527
4.938,-0.0618166809782733
4.94,-0.0419850110088955
4.942,-0.0252532012974333
4.944,-0.013295874284988
4.946,-0.00519203150404735
4.948,9.21785958835075e-05
4.95,0.00357365292416462
4.952,0.00587933164404619
4.954,0.00724619817266858
4.956,0.00789428128603703
4.958,0.00804360976015678
4.96,0.00791331043088433
4.962,0.0077017655106561
4.964,0.00758661258848853
4.966,0.00774458731324928
4.968,0.00835242533380609
4.97,0.00958686229902661
4.972,0.0116246338577786
4.974,0.0146303858013305
4.976,0.0184906971961728
4.978,0.0228140803840169
4.98,0.0271969578489757
4.982,0.0312357520751616
4.984,0.0345394846130014
4.986,0.0370069555381451
4.988,0.0388267434514659
4.99,0.0402000260201512
4.992,0.041327980911388
4.994,0.0424117857923639
4.996,0.0436443578015284
4.998,0.0450286219163644
5,0.046377510953388
5.002,0.0474956972003777
5.004,0.048187852945112
5.006,0.0482586504753694
5.008,0.0475269495272602
5.01,0.0461379211485282
5.012,0.0445630476985509
5.014,0.0432879989850372
5.016,0.0427984448156964
5.018,0.0435622299291824
5.02,0.0456372224758744
5.022,0.0486713140178778
5.024,0.0522945710482423
5.026,0.0561370600600177
5.028,0.0598288475462536
5.03,0.063
5.032,0.0653997954020015
5.034,0.0672543576837827
5.036,0.0689090222645631
5.038,0.0707091245635624
5.04,0.073
5.042,0.0760418438450347
5.044,0.0797542907775822
5.046,0.0839718353284976
5.048,0.0885289720286356
5.05,0.0932601954088514
5.052,0.0979999999999999
5.054,0.102606599935339
5.056,0.107033087757736
5.058,0.111256275612465
5.06,0.115252975644796
5.062,0.119
5.064,0.122598729830303
5.066,0.126648822315743
5.068,0.131874503643311
5.07,0.139
5.072,0.148378513827812
5.074,0.158879152588792
5.076,0.169
5.078,0.177866375656063
5.08,0.1871125426619
5.082,0.199
5.084,0.214572148952484
5.086,0.23
5.088,0.241349543940772
5.09,0.249139083644794
5.092,0.255
5.094,0.2603014074929
5.096,0.265363355004288
5.098,0.270243625013532
5.1,0.275
5.102,0.279628770959352
5.104,0.283880262952417
5.106,0.287443309556317
5.108,0.290006744348176
5.11,0.291259400905114
5.112,0.290890112804254
5.114,0.288611752104749
5.116,0.284690075952464
5.118,0.279943726579978
5.12,0.275215384701899
5.122,0.271347731032835
5.124,0.269130328555373
5.126,0.268131032415564
5.128,0.266695989922925
5.13,0.26311823065495
5.132,0.255690784189132
5.134,0.242861714585212
5.136,0.226644878994557
5.138,0.212397475996484
5.14,0.20051535038791
5.142,0.186501506428853
5.144,0.170778094453804
5.146,0.158718877570788
5.148,0.151551512429321
5.15,0.146134001492668
5.152,0.139134362259474
5.154,0.127379247889102
5.156,0.111343931737456
5.158,0.0950438725833724
5.16,0.0801591650733843
5.162,0.0659452617774088
5.164,0.0531444079690067
5.166,0.0440177629600561
5.168,0.0391406346833044
5.17,0.0373331219759657
5.172,0.037339010236318
5.174,0.0379020848626392
5.176,0.0377993096416226
5.178,0.0365707512935147
5.18,0.0345195794721149
5.182,0.0319821422196385
5.184,0.0292947875783001
5.186,0.0267849984734534
5.188,0.0245763601426369
5.19,0.0225885601355744
5.192,0.0207324208851281
5.194,0.0189187648241601
5.196,0.0170620913149532
5.198,0.0151614690964613
5.2,0.0133005362843088
5.202,0.0115666079235413
5.204,0.0100469990592038
5.206,0.00882902473634162
5.208,0.00800000000000001
5.21,0.00760981658308801
5.212,0.00755867296996993
5.214,0
5.216,0
5.218,0
5.22,-0.00341122183690235
5.222,-0.00262558322466033
5.224,-0.00195416071886167
5.226,-0.00133094603989153
5.228,-0.000689930908135128
5.23,3.4892956022381e-05
5.232,0.00090953383219583
5.234,0.002
5.236,0.00337229973904968
5.238,0.00509244132895975
5.24,0.00722643304934489
5.242,0.00984028317982005
5.244,0.013
5.246,0.0167025652305922
5.248,0.0206688543566754
5.25,0.0245507163044208
5.252,0.028
5.254,0.0307674817593395
5.256,0.0329996474573879
5.258,0.0349419103588489
5.26,0.0368396837284266
5.262,0.0389383808308247
5.264,0.0414834149307472
5.266,0.0447037730113203
5.268,0.0484506375793874
5.27,0.0521973866655089
5.272,0.0554009720186675
5.274,0.0575183453878461
5.276,0.0580289781310401
5.278,0.0569302926135359
5.28,0.0547376622079105
5.282,0.0519889798957538
5.284,0.0492221386586554
5.286,0.0469605967091873
5.288,0.045395812572507
5.29,0.0443872450863583
5.292,0.0437799183194667
5.294,0.043418856340558
5.296,0.0431490832183577
5.298,0.0428122513891604
5.3,0.0421724657433454
5.302,0.0409162836253769
5.304,0.0387268907472877
5.306,0.0352874728211109
5.308,0.0303049529630062
5.31,0.0240322145840481
5.312,0.0172681013902257
5.314,0.0108351944916548
5.316,0.00553494138601612
5.318,0.00168271648497476
5.32,-0.000892178885819161
5.322,-0.00238157701315089
5.324,-0.00297731018380587
5.326,-0.00287102844511333
5.328,-0.00225019033691159
5.33,-0.00129806289154827
5.332,-0.000197730901914883
5.334,0.000867720839097141
5.336,0.00171520753859633
5.338,0.00216901322331536
5.34,0.0022229047713434
5.342,0.00204013191212593
5.344,0.00179131319473264
5.346,0.00164706716823321
5.348,0.00177801238169734
5.35,0.00233986891277149
5.352,0.00314569199636844
5.354,0.00366587202466734
5.356,0.00335590091842403
5.358,0.00167127059839439
5.36,-0.00193252701466562
5.362,-0.00800000000000012
5.364,-0.0166100813235882
5.366,-0.0259794034983483
5.368,-0.0338590239239344
5.37,-0.038
5.372,-0.0379125877881391
5.374,-0.0401438379977072
5.376,-0.053
5.378,-0.078662121296825
5.38,-0.0948104419120364
5.382,-0.073
5.384,0.00267953893637424
5.386,0.098
5.388,0.178117881186059
5.39,0.255866881452979
5.392,0.356000000000002
5.394,0.491529085386149
5.396,0.628501383609573
5.398,0.721222990028212
5.4,0.724
5.402,0.614895432378527
5.404,0.467
5.406,0.356763489984521
5.408,0.279044292605157
5.41,0.208302948923214
5.412,0.119
5.414,-0.00209794443755174
5.416,-0.119
5.418,-0.193585615626068
5.42,-0.22843984822964
5.422,-0.236324156718392
5.424,-0.23
5.426,-0.219658787808854
5.428,-0.2052117331862
5.43,-0.184
5.432,-0.155658857942114
5.434,-0.129
5.436,-0.112300491341789
5.438,-0.102522462562715
5.44,-0.093799310614784
5.442,-0.0804779678558527
5.444,-0.0618166809782733
5.446,-0.0419850110088955
5.448,-0.0252532012974333
5.45,-0.013295874284988
5.452,-0.00519203150404735
5.454,9.21785958835075e-05
5.456,0.00357365292416462
5.458,0.00587933164404619
5.46,0.00724619817266858
5.462,0.00789428128603703
5.464,0.00804360976015678
5.466,0.00791331043088433
5.468,0.0077017655106561
5.47,0.00758661258848853
5.472,0.00774458731324928
5.474,0.00835242533380609
5.476,0.00958686229902661
5.478,0.0116246338577786
5.48,0.0146303858013305
5.482,0.0184906971961728
5.484,0.0228140803840169
5.486,0.0271969578489757
5.488,0.0312357520751616
5.49,0.0345394846130014
5.492,0.0370069555381451
5.494,0.0388267434514659
5.496,0.0402000260201512
5.498,0.041327980911388
5.5,0.0424117857923639
5.502,0.0436443578015284
5.504,0.0450286219163644
5.506,0.046377510953388
5.508,0.0474956972003777
5.51,0.048187852945112
5.512,0.0482586504753694
5.514,0.0475269495272602
5.516,0.0461379211485282
5.518,0.0445630476985509
5.52,0.0432879989850372
5.522,0.0427984448156964
5.524,0.0435622299291824
5.526,0.0456372224758744
5.528,0.0486713140178778
5.53,0.0522945710482423
5.532,0.0561370600600177
5.534,0.0598288475462536
5.536,0.063
5.538,0.0653997954020015
5.54,0.0672543576837827
5.542,0.0689090222645631
5.544,0.0707091245635624
5.546,0.073
5.548,0.0760418438450347
5.55,0.0797542907775822
5.552,0.0839718353284976
5.554,0.0885289720286356
5.556,0.0932601954088514
5.558,0.0979999999999999
5.56,0.102606599935339
5.562,0.107033087757736
5.564,0.111256275612465
5.566,0.115252975644796
5.568,0.119
5.57,0.122598729830303
5.572,0.126648822315743
5.574,0.131874503643311
5.576,0.139
5.578,0.148378513827812
5.58,0.158879152588792
5.582,0.169
5.584,0.177866375656063
5.586,0.1871125426619
5.588,0.199
5.59,0.214572148952484
5.592,0.23
5.594,0.241349543940772
5.596,0.249139083644794
5.598,0.255
5.6,0.2603014074929
5.602,0.265363355004288
5.604,0.270243625013532
5.606,0.275
5.608,0.279628770959352
5.61,0.283880262952417
5.612,0.287443309556317
5.614,0.290006744348176
5.616,0.291259400905114
5.618,0.290890112804254
5.62,0.288611752104749
5.622,0.284690075952464
5.624,0.279943726579978
5.626,0.275215384701899
5.628,0.271347731032835
5.63,0.269130328555373
5.632,0.268131032415564
5.634,0.266695989922925
5.636,0.26311823065495
5.638,0.255690784189132
5.64,0.242861714585212
5.642,0.226644878994557
5.644,0.212397475996484
5.646,0.20051535038791
5.648,0.186501506428853
5.65,0.170778094453804
5.652,0.158718877570788
5.654,0.151551512429321
5.656,0.146134001492668
5.658,0.139134362259474
5.66,0.127379247889102
5.662,0.111343931737456
5.664,0.0950438725833724
5.666,0.0801591650733843
5.668,0.0659452617774088
5.67,0.0531444079690067
5.672,0.0440177629600561
5.674,0.0391406346833044
5.676,0.0373331219759657
5.678,0.037339010236318
5.68,0.0379020848626392
5.682,0.0377993096416226
5.684,0.0365707512935147
5.686,0.0345195794721149
5.688,0.0319821422196385
5.69,0.0292947875783001
5.692,0.0267849984734534
5.694,0.0245763601426369
5.696,0.0225885601355744
5.698,0.0207324208851281
5.7,0.0189187648241601
5.702,0.0170620913149532
5.704,0.0151614690964613
5.706,0.0133005362843088
5.708,0.0115666079235413
5.71,0.0100469990592038
5.712,0.00882902473634162
5.714,0.00800000000000001
5.716,0.00760981658308801
5.718,0.00755867296996993
5.72,0
5.722,0
5.724,0
5.726,-0.00341122183690235
5.728,-0.00262558322466033
5.73,-0.00195416071886167
5.732,-0.00133094603989153
5.734,-0.000689930908135128
5.736,3.4892956022381e-05
5.738,0.00090953383219583
5.74,0.002
5.742,0.00337229973904968
5.744,0.00509244132895975
5.746,0.00722643304934489
5.748,0.00984028317982005
5.75,0.013
5.752,0.0167025652305922
5.754,0.0206688543566754
5.756,0.0245507163044208
5.758,0.028
5.76,0.0307674817593395
5.762,0.0329996474573879
5.764,0.0349419103588489
5.766,0.0368396837284266
5.768,0.0389383808308247
5.77,0.0414834149307472
5.772,0.0447037730113203
5.774,0.0484506375793874
5.776,0.0521973866655089
5.778,0.0554009720186675
5.78,0.0575183453878461
5.782,0.0580289781310401
5.784,0.0569302926135359
5.786,0.0547376622079105
5.788,0.0519889798957538
5.79,0.0492221386586554
5.792,0.0469605967091873
5.794,0.045395812572507
5.796,0.0443872450863583
5.798,0.0437799183194667
5.8,0.043418856340558
5.802,0.0431490832183577
5.804,0.0428122513891604
5.806,0.0421724657433454
5.808,0.0409162836253769
5.81,0.0387268907472877
5.812,0.0352874728211109
5.814,0.0303049529630062
5.816,0.0240322145840481
5.818,0.0172681013902257
5.82,0.0108351944916548
5.822,0.00553494138601612
5.824,0.00168271648497476
5.826,-0.000892178885819161
5.828,-0.00238157701315089
5.83,-0.00297731018380587
5.832,-0.00287102844511333
5.834,-0.00225019033691159
5.836,-0.00129806289154827
5.838,-0.000197730901914883
5.84,0.000867720839097141
5.842,0.00171520753859633
5.844,0.00216901322331536
5.846,0.0022229047713434
5.848,0.00204013191212593
5.85,0.00179131319473264
5.852,0.00164706716823321
5.854,0.00177801238169734
5.856,0.00233986891277149
5.858,0.00314569199636844
5.86,0.00366587202466734
5.862,0.00335590091842403
5.864,0.00167127059839439
5.866,-0.00193252701466562
5.868,-0.00800000000000012
5.87,-0.0166100813235882
5.872,-0.0259794034983483
5.874,-0.0338590239239344
5.876,-0.038
5.878,-0.0379125877881391
5.88,-0.0401438379977072
5.882,-0.053
5.884,-0.078662121296825
5.886,-0.0948104419120364
5.888,-0.073
5.89,0.00267953893637424
5.892,0.098
5.894,0.178117881186059
5.896,0.255866881452979
5.898,0.356000000000002
5.9,0.491529085386149
5.902,0.628501383609573
5.904,0.721222990028212
5.906,0.724
5.908,0.614895432378527
5.91,0.467
5.912,0.356763489984521
5.914,0.279044292605157
5.916,0.208302948923214
5.918,0.119
5.92,-0.00209794443755174
5.922,-0.119
5.924,-0.193585615626068
5.926,-0.22843984822964
5.928,-0.236324156718392
5.93,-0.23
5.932,-0.219658787808854
5.934,-0.2052117331862
5.936,-0.184
5.938,-0.155658857942114
5.94,-0.129
5.942,-0.112300491341789
5.944,-0.102522462562715
5.946,-0.093799310614784
5.948,-0.0804779678558527
5.95,-0.0618166809782733
5.952,-0.0419850110088955
5.954,-0.0252532012974333
5.956,-0.013295874284988
5.958,-0.00519203150404735
5.96,9.21785958835075e-05
5.962,0.00357365292416462
5.964,0.00587933164404619
5.966,0.00724619817266858
5.968,0.00789428128603703
5.97,0.00804360976015678
5.972,0.00791331043088433
5.974,0.0077017655106561
5.976,0.00758661258848853
5.978,0.00774458731324928
5.98,0.00835242533380609
5.982,0.00958686229902661
5.984,0.0116246338577786
5.986,0.0146303858013305
5.988,0.0184906971961728
5.99,0.0228140803840169
5.992,0.0271969578489757
5.994,0.0312357520751616
5.996,0.0345394846130014
5.998,0.0370069555381451
6,0.0388267434514659
6.002,0.0402000260201512
6.004,0.041327980911388
6.006,0.0424117857923639
6.008,0.0436443578015284
6.01,0.0450286219163644
6.012,0.046377510953388
6.014,0.0474956972003777
6.016,0.048187852945112
6.018,0.0482586504753694
6.02,0.0475269495272602
6.022,0.0461379211485282
6.024,0.0445630476985509
6.026,0.0432879989850372
6.028,0.0427984448156964
6.03,0.0435622299291824
6.032,0.0456372224758744
6.034,0.0486713140178778
6.036,0.0522945710482423
6.038,0.0561370600600177
6.04,0.0598288475462536
6.042,0.063
6.044,0.0653997954020015
6.046,0.0672543576837827
6.048,0.0689090222645631
6.05,0.0707091245635624
6.052,0.073
6.054,0.0760418438450347
6.056,0.0797542907775822
6.058,0.0839718353284976
6.06,0.0885289720286356
6.062,0.0932601954088514
6.064,0.0979999999999999
6.066,0.102606599935339
6.068,0.107033087757736
6.07,0.111256275612465
6.072,0.115252975644796
6.074,0.119
6.076,0.122598729830303
6.078,0.126648822315743
6.08,0.131874503643311
6.082,0.139
6.084,0.148378513827812
6.086,0.158879152588792
6.088,0.169
6.09,0.177866375656063
6.092,0.1871125426619
6.094,0.199
6.096,0.214572148952484
6.098,0.23
6.1,0.241349543940772
6.102,0.249139083644794
6.104,0.255
6.106,0.2603014074929
6.108,0.265363355004288
6.11,0.270243625013532
6.112,0.275
6.114,0.279628770959352
6.116,0.283880262952417
6.118,0.287443309556317
6.12,0.290006744348176
6.122,0.291259400905114
6.124,0.290890112804254
6.126,0.288611752104749
6.128,0.284690075952464
6.13,0.279943726579978
6.132,0.275215384701899
6.134,0.271347731032835
6.136,0.269130328555373
6.138,0.268131032415564
6.14,0.266695989922925
6.142,0.26311823065495
6.144,0.255690784189132
6.146,0.242861714585212
6.148,0.226644878994557
6.15,0.212397475996484
6.152,0.20051535038791
6.154,0.186501506428853
6.156,0.170778094453804
6.158,0.158718877570788
6.16,0.151551512429321
6.162,0.146134001492668
6.164,0.139134362259474
6.166,0.127379247889102
6.168,0.111343931737456
6.17,0.0950438725833724
6.172,0.0801591650733843
6.174,0.0659452617774088
6.176,0.0531444079690067
6.178,0.0440177629600561
6.18,0.0391406346833044
6.182,0.0373331219759657
6.184,0.037339010236318
6.186,0.0379020848626392
6.188,0.0377993096416226
6.19,0.0365707512935147
6.192,0.0345195794721149
6.194,0.0319821422196385
6.196,0.0292947875783001
6.198,0.0267849984734534
6.2,0.0245763601426369
6.202,0.0225885601355744
6.204,0.0207324208851281
6.206,0.0189187648241601
6.208,0.0170620913149532
6.21,0.0151614690964613
6.212,0.0133005362843088
6.214,0.0115666079235413
6.216,0.0100469990592038
6.218,0.00882902473634162
6.22,0.00800000000000001
6.222,0.00760981658308801
6.224,0.00755867296996993
6.226,0
6.228,0
6.23,0
6.232,-0.00341122183690235
6.234,-0.00262558322466033
6.236,-0.00195416071886167
6.238,-0.00133094603989153
6.24,-0.000689930908135128
6.242,3.4892956022381e-05
6.244,0.00090953383219583
6.246,0.002
6.248,0.00337229973904968
6.25,0.00509244132895975
6.252,0.00722643304934489
6.254,0.00984028317982005
6.256,0.013
6.258,0.0167025652305922
6.26,0.0206688543566754
6.262,0.0245507163044208
6.264,0.028
6.266,0.0307674817593395
6.268,0.0329996474573879
6.27,0.0349419103588489
6.272,0.0368396837284266
6.274,0.0389383808308247
6.276,0.0414834149307472
6.278,0.0447037730113203
6.28,0.0484506375793874
6.282,0.0521973866655089
6.284,0.0554009720186675
6.286,0.0575183453878461
6.288,0.0580289781310401
6.29,0.0569302926135359
6.292,0.0547376622079105
6.294,0.0519889798957538
6.296,0.0492221386586554
6.298,0.0469605967091873
6.3,0.045395812572507
6.302,0.0443872450863583
6.304,0.0437799183194667
6.306,0.043418856340558
6.308,0.0431490832183577
6.31,0.0428122513891604
6.312,0.0421724657433454
6.314,0.0409162836253769
6.316,0.0387268907472877
6.318,0.0352874728211109
6.32,0.0303049529630062
6.322,0.0240322145840481
6.324,0.0172681013902257
6.326,0.0108351944916548
6.328,0.00553494138601612
6.33,0.00168271648497476
6.332,-0.000892178885819161
6.334,-0.00238157701315089
6.336,-0.00297731018380587
6.338,-0.00287102844511333
6.34,-0.00225019033691159
6.342,-0.00129806289154827
6.344,-0.000197730901914883
6.346,0.000867720839097141
6.348,0.00171520753859633
6.35,0.00216901322331536
6.352,0.0022229047713434
6.354,0.00204013191212593
6.356,0.00179131319473264
6.358,0.00164706716823321
6.36,0.00177801238169734
6.362,0.00233986891277149
6.364,0.00314569199636844
6.366,0.00366587202466734
6.368,0.00335590091842403
6.37,0.00167127059839439
6.372,-0.00193252701466562
6.374,-0.00800000000000012
6.376,-0.0166100813235882
6.378,-0.0259794034983483
6.38,-0.0338590239239344
6.382,-0.038
6.384,-0.0379125877881391
6.386,-0.0401438379977072
6.388,-0.053
6.39,-0.078662121296825
6.392,-0.0948104419120364
6.394,-0.073
6.396,0.00267953893637424
6.398,0.098
6.4,0.178117881186059
6.402,0.255866881452979
6.404,0.356000000000002
6.406,0.491529085386149
6.408,0.628501383609573
6.41,0.721222990028212
6.412,0.724
6.414,0.614895432378527
6.416,0.467
6.418,0.356763489984521
6.42,0.279044292605157
6.422,0.208302948923214
6.424,0.119
6.426,-0.00209794443755174
6.428,-0.119
6.43,-0.193585615626068
6.432,-0.22843984822964
6.434,-0.236324156718392
6.436,-0.23
6.438,-0.219658787808854
6.44,-0.2052117331862
6.442,-0.184
6.444,-0.155658857942114
6.446,-0.129
6.448,-0.112300491341789
6.45,-0.102522462562715
6.452,-0.093799310614784
6.454,-0.0804779678558527
6.456,-0.0618166809782733
6.458,-0.0419850110088955
6.46,-0.0252532012974333
6.462,-0.013295874284988
6.464,-0.00519203150404735
6.466,9.21785958835075e-05
6.468,0.00357365292416462
6.47,0.00587933164404619
6.472,0.00724619817266858
6.474,0.00789428128603703
6.476,0.00804360976015678
6.478,0.00791331043088433
6.48,0.0077017655106561
6.482,0.00758661258848853
6.484,0.00774458731324928
6.486,0.00835242533380609
6.488,0.00958686229902661
6.49,0.0116246338577786
6.492,0.0146303858013305
6.494,0.0184906971961728
6.496,0.0228140803840169
6.498,0.0271969578489757
6.5,0.0312357520751616
6.502,0.0345394846130014
6.504,0.0370069555381451
6.506,0.0388267434514659
6.508,0.0402000260201512
6.51,0.041327980911388
6.512,0.0424117857923639
6.514,0.0436443578015284
6.516,0.0450286219163644
6.518,0.046377510953388
6.52,0.0474956972003777
6.522,0.048187852945112
6.524,0.0482586504753694
6.526,0.0475269495272602
6.528,0.0461379211485282
6.53,0.0445630476985509
6.532,0.0432879989850372
6.534,0.0427984448156964
6.536,0.0435622299291824
6.538,0.0456372224758744
6.54,0.0486713140178778
6.542,0.0522945710482423
6.544,0.0561370600600177
6.546,0.0598288475462536
6.548,0.063
6.55,0.0653997954020015
6.552,0.0672543576837827
6.554,0.0689090222645631
6.556,0.0707091245635624
6.558,0.073
6.56,0.0760418438450347
6.562,0.0797542907775822
6.564,0.0839718353284976
6.566,0.0885289720286356
6.568,0.0932601954088514
6.57,0.0979999999999999
6.572,0.102606599935339
6.574,0.107033087757736
6.576,0.111256275612465
6.578,0.115252975644796
6.58,0.119
6.582,0.122598729830303
6.584,0.126648822315743
6.586,0.131874503643311
6.588,0.139
6.59,0.148378513827812
6.592,0.158879152588792
6.594,0.169
6.596,0.177866375656063
6.598,0.1871125426619
6.6,0.199
6.602,0.214572148952484
6.604,0.23
6.606,0.241349543940772
6.608,0.249139083644794
6.61,0.255
6.612,0.2603014074929
6.614,0.265363355004288
6.616,0.270243625013532
6.618,0.275
6.62,0.279628770959352
6.622,0.283880262952417
6.624,0.287443309556317
6.626,0.290006744348176
6.628,0.291259400905114
6.63,0.290890112804254
6.632,0.288611752104749
6.634,0.284690075952464
6.636,0.279943726579978
6.638,0.275215384701899
6.64,0.271347731032835
6.642,0.269130328555373
6.644,0.268131032415564
6.646,0.266695989922925
6.648,0.26311823065495
6.65,0.255690784189132
6.652,0.242861714585212
6.654,0.226644878994557
6.656,0.212397475996484
6.658,0.20051535038791
6.66,0.186501506428853
6.662,0.170778094453804
6.664,0.158718877570788
6.666,0.151551512429321
6.668,0.146134001492668
6.67,0.139134362259474
6.672,0.127379247889102
6.674,0.111343931737456
6.676,0.0950438725833724
6.678,0.0801591650733843
6.68,0.0659452617774088
6.682,0.0531444079690067
6.684,0.0440177629600561
6.686,0.0391406346833044
6.688,0.0373331219759657
6.69,0.037339010236318
6.692,0.0379020848626392
6.694,0.0377993096416226
6.696,0.0365707512935147
6.698,0.0345195794721149
6.7,0.0319821422196385
6.702,0.0292947875783001
6.704,0.0267849984734534
6.706,0.0245763601426369
6.708,0.0225885601355744
6.71,0.0207324208851281
6.712,0.0189187648241601
6.714,0.0170620913149532
6.716,0.0151614690964613
6.718,0.0133005362843088
6.72,0.0115666079235413
6.722,0.0100469990592038
6.724,0.00882902473634162
6.726,0.00800000000000001
6.728,0.00760981658308801
6.73,0.00755867296996993
6.732,0
6.734,0
6.736,0
6.738,-0.00341122183690235
6.74,-0.00262558322466033
6.742,-0.00195416071886167
6.744,-0.00133094603989153
6.746,-0.000689930908135128
6.748,3.4892956022381e-05
6.75,0.00090953383219583
6.752,0.002
6.754,0.00337229973904968
6.756,0.00509244132895975
6.758,0.00722643304934489
6.76,0.00984028317982005
6.762,0.013
6.764,0.0167025652305922
6.766,0.0206688543566754
6.768,0.0245507163044208
6.77,0.028
6.772,0.0307674817593395
6.774,0.0329996474573879
6.776,0.0349419103588489
6.778,0.0368396837284266
6.78,0.0389383808308247
6.782,0.0414834149307472
6.784,0.0447037730113203
6.786,0.0484506375793874
6.788,0.0521973866655089
6.79,0.0554009720186675
6.792,0.0575183453878461
6.794,0.0580289781310401
6.796,0.0569302926135359
6.798,0.0547376622079105
6.8,0.0519889798957538
6.802,0.0492221386586554
6.804,0.0469605967091873
6.806,0.045395812572507
6.808,0.0443872450863583
6.81,0.0437799183194667
6.812,0.043418856340558
6.814,0.0431490832183577
6.816,0.0428122513891604
6.818,0.0421724657433454
6.82,0.0409162836253769
6.822,0.0387268907472877
6.824,0.0352874728211109
6.826,0.0303049529630062
6.828,0.0240322145840481
6.83,0.0172681013902257
6.832,0.0108351944916548
6.834,0.00553494138601612
6.836,0.00168271648497476
6.838,-0.000892178885819161
6.84,-0.00238157701315089
6.842,-0.00297731018380587
6.844,-0.00287102844511333
6.846,-0.00225019033691159
6.848,-0.00129806289154827
6.85,-0.000197730901914883
6.852,0.000867720839097141
6.854,0.00171520753859633
6.856,0.00216901322331536
6.858,0.0022229047713434
6.86,0.00204013191212593
6.862,0.00179131319473264
6.864,0.00164706716823321
6.866,0.00177801238169734
6.868,0.00233986891277149
6.87,0.00314569199636844
6.872,0.00366587202466734
6.874,0.00335590091842403
6.876,0.00167127059839439
6.878,-0.00193252701466562
6.88,-0.00800000000000012
6.882,-0.0166100813235882
6.884,-0.0259794034983483
6.886,-0.0338590239239344
6.888,-0.038
6.89,-0.0379125877881391
6.892,-0.0401438379977072
6.894,-0.053
6.896,-0.078662121296825
6.898,-0.0948104419120364
6.9,-0.073
6.902,0.00267953893637424
6.904,0.098
6.906,0.178117881186059
6.908,0.255866881452979
6.91,0.356000000000002
6.912,0.491529085386149
6.914,0.628501383609573
6.916,0.721222990028212
6.918,0.724
6.92,0.614895432378527
6.922,0.467
6.924,0.356763489984521
6.926,0.279044292605157
6.928,0.208302948923214
6.93,0.119
6.932,-0.00209794443755174
6.934,-0.119
6.936,-0.193585615626068
6.938,-0.22843984822964
6.94,-0.236324156718392
6.942,-0.23
6.944,-0.219658787808854
6.946,-0.2052117331862
6.948,-0.184
6.95,-0.155658857942114
6.952,-0.129
6.954,-0.112300491341789
6.956,-0.102522462562715
6.958,-0.093799310614784
6.96,-0.0804779678558527
6.962,-0.0618166809782733
6.964,-0.0419850110088955
6.966,-0.0252532012974333
6.968,-0.013295874284988
6.97,-0.00519203150404735
6.972,9.21785958835075e-05
6.974,0.00357365292416462
6.976,0.00587933164404619
6.978,0.00724619817266858
6.98,0.00789428128603703
6.982,0.00804360976015678
6.984,0.00791331043088433
6.986,0.0077017655106561
6.988,0.00758661258848853
6.99,0.00774458731324928
6.992,0.00835242533380609
6.994,0.00958686229902661
6.996,0.0116246338577786
6.998,0.0146303858013305
7,0.0184906971961728
7.002,0.0228140803840169
7.004,0.0271969578489757
7.006,0.0312357520751616
7.008,0.0345394846130014
7.01,0.0370069555381451
7.012,0.0388267434514659
7.014,0.0402000260201512
7.016,0.041327980911388
7.018,0.0424117857923639
7.02,0.0436443578015284
7.022,0.0450286219163644
7.024,0.046377510953388
7.026,0.0474956972003777
7.028,0.048187852945112
7.03,0.0482586504753694
7.032,0.0475269495272602
7.034,0.0461379211485282
7.036,0.0445630476985509
7.038,0.0432879989850372
7.04,0.0427984448156964
7.042,0.0435622299291824
7.044,0.0456372224758744
7.046,0.0486713140178778
7.048,0.0522945710482423
7.05,0.0561370600600177
7.052,0.0598288475462536
7.054,0.063
7.056,0.0653997954020015
7.058,0.0672543576837827
7.06,0.0689090222645631
7.062,0.0707091245635624
7.064,0.073
7.066,0.0760418438450347
7.068,0.0797542907775822
7.07,0.0839718353284976
7.072,0.0885289720286356
7.074,0.0932601954088514
7.076,0.0979999999999999
7.078,0.102606599935339
7.08,0.107033087757736
7.082,0.111256275612465
7.084,0.115252975644796
7.086,0.119
7.088,0.122598729830303
7.09,0.126648822315743
7.092,0.131874503643311
7.094,0.139
7.096,0.148378513827812
7.098,0.158879152588792
7.1,0.169
7.102,0.177866375656063
7.104,0.1871125426619
7.106,0.199
7.108,0.214572148952484
7.11,0.23
7.112,0.241349543940772
7.114,0.249139083644794
7.116,0.255
7.118,0.2603014074929
7.12,0.265363355004288
7.122,0.270243625013532
7.124,0.275
7.126,0.279628770959352
7.128,0.283880262952417
7.13,0.287443309556317
7.132,0.290006744348176
7.134,0.291259400905114
7.136,0.290890112804254
7.138,0.288611752104749
7.14,0.284690075952464
7.142,0.279943726579978
7.144,0.275215384701899
7.146,0.271347731032835
7.148,0.269130328555373
7.15,0.268131032415564
7.152,0.266695989922925
7.154,0.26311823065495
7.156,0.255690784189132
7.158,0.242861714585212
7.16,0.226644878994557
7.162,0.212397475996484
7.164,0.20051535038791
7.166,0.186501506428853
7.168,0.170778094453804
7.17,0.158718877570788
7.172,0.151551512429321
7.174,0.146134001492668
7.176,0.139134362259474
7.178,0.127379247889102
7.18,0.111343931737456
7.182,0.0950438725833724
7.184,0.0801591650733843
7.186,0.0659452617774088
7.188,0.0531444079690067
7.19,0.0440177629600561
7.192,0.0391406346833044
7.194,0.0373331219759657
7.196,0.037339010236318
7.198,0.0379020848626392
7.2,0.0377993096416226
7.202,0.0365707512935147
7.204,0.0345195794721149
7.206,0.0319821422196385
7.208,0.0292947875783001
7.21,0.0267849984734534
7.212,0.0245763601426369
7.214,0.0225885601355744
7.216,0.0207324208851281
7.218,0.0189187648241601
7.22,0.0170620913149532
7.222,0.0151614690964613
7.224,0.0133005362843088
7.226,0.0115666079235413
7.228,0.0100469990592038
7.23,0.00882902473634162
7.232,0.00800000000000001
7.234,0.00760981658308801
7.236,0.00755867296996993
7.238,0
7.24,0
7.242,0
7.244,-0.00341122183690235
7.246,-0.00262558322466033
7.248,-0.00195416071886167
7.25,-0.00133094603989153
7.252,-0.000689930908135128
7.254,3.4892956022381e-05
7.256,0.00090953383219583
7.258,0.002
7.26,0.00337229973904968
7.262,0.00509244132895975
7.264,0.00722643304934489
7.266,0.00984028317982005
7.268,0.013
7.27,0.0167025652305922
7.272,0.0206688543566754
7.274,0.0245507163044208
7.276,0.028
7.278,0.0307674817593395
7.28,0.0329996474573879
7.282,0.0349419103588489
7.284,0.0368396837284266
7.286,0.0389383808308247
7.288,0.0414834149307472
7.29,0.0447037730113203
7.292,0.0484506375793874
7.294,0.0521973866655089
7.296,0.0554009720186675
7.298,0.0575183453878461
7.3,0.0580289781310401
7.302,0.0569302926135359
7.304,0.0547376622079105
7.306,0.0519889798957538
7.308,0.0492221386586554
7.31,0.0469605967091873
7.312,0.045395812572507
7.314,0.0443872450863583
7.316,0.0437799183194667
7.318,0.043418856340558
7.32,0.0431490832183577
7.322,0.0428122513891604
7.324,0.0421724657433454
7.326,0.0409162836253769
7.328,0.0387268907472877
7.33,0.0352874728211109
7.332,0.0303049529630062
7.334,0.0240322145840481
7.336,0.0172681013902257
7.338,0.0108351944916548
7.34,0.00553494138601612
7.342,0.00168271648497476
7.344,-0.000892178885819161
7.346,-0.00238157701315089
7.348,-0.00297731018380587
7.35,-0.00287102844511333
7.352,-0.00225019033691159
7.354,-0.00129806289154827
7.356,-0.000197730901914883
7.358,0.000867720839097141
7.36,0.00171520753859633
7.362,0.00216901322331536
7.364,0.0022229047713434
7.366,0.00204013191212593
7.368,0.00179131319473264
7.37,0.00164706716823321
7.372,0.00177801238169734
7.374,0.00233986891277149
7.376,0.00314569199636844
7.378,0.00366587202466734
7.38,0.00335590091842403
7.382,0.00167127059839439
7.384,-0.00193252701466562
7.386,-0.00800000000000012
7.388,-0.0166100813235882
7.39,-0.0259794034983483
7.392,-0.0338590239239344
7.394,-0.038
7.396,-0.0379125877881391
7.398,-0.0401438379977072
7.4,-0.053
7.402,-0.078662121296825
7.404,-0.0948104419120364
7.406,-0.073
7.408,0.00267953893637424
7.41,0.098
7.412,0.178117881186059
7.414,0.255866881452979
7.416,0.356000000000002
7.418,0.491529085386149
7.42,0.628501383609573
7.422,0.721222990028212
7.424,0.724
7.426,0.614895432378527
7.428,0.467
7.43,0.356763489984521
7.432,0.279044292605157
7.434,0.208302948923214
7.436,0.119
7.438,-0.00209794443755174
7.44,-0.119
7.442,-0.193585615626068
7.444,-0.22843984822964
7.446,-0.236324156718392
7.448,-0.23
7.45,-0.219658787808854
7.452,-0.2052117331862
7.454,-0.184
7.456,-0.155658857942114
7.458,-0.129
7.46,-0.112300491341789
7.462,-0.102522462562715
7.464,-0.093799310614784
7.466,-0.0804779678558527
7.468,-0.0618166809782733
7.47,-0.0419850110088955
7.472,-0.0252532012974333
7.474,-0.013295874284988
7.476,-0.00519203150404735
7.478,9.21785958835075e-05
7.48,0.00357365292416462
7.482,0.00587933164404619
7.484,0.00724619817266858
7.486,0.00789428128603703
7.488,0.00804360976015678
7.49,0.00791331043088433
7.492,0.0077017655106561
7.494,0.00758661258848853
7.496,0.00774458731324928
7.498,0.00835242533380609
7.5,0.00958686229902661
7.502,0.0116246338577786
7.504,0.0146303858013305
7.506,0.0184906971961728
7.508,0.0228140803840169
7.51,0.0271969578489757
7.512,0.0312357520751616
7.514,0.0345394846130014
7.516,0.0370069555381451
7.518,0.0388267434514659
7.52,0.0402000260201512
7.522,0.041327980911388
7.524,0.0424117857923639
7.526,0.0436443578015284
7.528,0.0450286219163644
7.53,0.046377510953388
7.532,0.0474956972003777
7.534,0.048187852945112
7.536,0.0482586504753694
7.538,0.0475269495272602
7.54,0.0461379211485282
7.542,0.0445630476985509
7.544,0.0432879989850372
7.546,0.0427984448156964
7.548,0.0435622299291824
7.55,0.0456372224758744
7.552,0.0486713140178778
7.554,0.0522945710482423
7.556,0.0561370600600177
7.558,0.0598288475462536
7.56,0.063
7.562,0.0653997954020015
7.564,0.0672543576837827
7.566,0.0689090222645631
7.568,0.0707091245635624
7.57,0.073
7.572,0.0760418438450347
7.574,0.0797542907775822
7.576,0.0839718353284976
7.578,0.0885289720286356
7.58,0.0932601954088514
7.582,0.0979999999999999
7.584,0.102606599935339
7.586,0.107033087757736
7.588,0.111256275612465
7.59,0.115252975644796
7.592,0.119
7.594,0.122598729830303
7.596,0.126648822315743
7.598,0.131874503643311
7.6,0.139
7.602,0.148378513827812
7.604,0.158879152588792
7.606,0.169
7.608,0.177866375656063
7.61,0.1871125426619
7.612,0.199
7.614,0.214572148952484
7.616,0.23
7.618,0.241349543940772
7.62,0.249139083644794
7.622,0.255
7.624,0.2603014074929
7.626,0.265363355004288
7.628,0.270243625013532
7.63,0.275
7.632,0.279628770959352
7.634,0.283880262952417
7.636,0.287443309556317
7.638,0.290006744348176
7.64,0.291259400905114
7.642,0.290890112804254
7.644,0.288611752104749
7.646,0.284690075952464
7.648,0.279943726579978
7.65,0.275215384701899
7.652,0.271347731032835
7.654,0.269130328555373
7.656,0.268131032415564
7.658,0.266695989922925
7.66,0.26311823065495
7.662,0.255690784189132
7.664,0.242861714585212
7.666,0.226644878994557
7.668,0.212397475996484
7.67,0.20051535038791
7.672,0.186501506428853
7.674,0.170778094453804
7.676,0.158718877570788
7.678,0.151551512429321
7.68,0.146134001492668
7.682,0.139134362259474
7.684,0.127379247889102
7.686,0.111343931737456
7.688,0.0950438725833724
7.69,0.0801591650733843
7.692,0.0659452617774088
7.694,0.0531444079690067
7.696,0.0440177629600561
7.698,0.0391406346833044
7.7,0.0373331219759657
7.702,0.037339010236318
7.704,0.0379020848626392
7.706,0.0377993096416226
7.708,0.0365707512935147
7.71,0.0345195794721149
7.712,0.0319821422196385
7.714,0.0292947875783001
7.716,0.0267849984734534
7.718,0.0245763601426369
7.72,0.0225885601355744
7.722,0.0207324208851281
7.724,0.0189187648241601
7.726,0.0170620913149532
7.728,0.0151614690964613
7.73,0.0133005362843088
7.732,0.0115666079235413
7.734,0.0100469990592038
7.736,0.00882902473634162
7.738,0.00800000000000001
7.74,0.00760981658308801
7.742,0.00755867296996993
7.744,0
7.746,0
7.748,0
7.75,-0.00341122183690235
7.752,-0.00262558322466033
7.754,-0.00195416071886167
7.756,-0.00133094603989153
7.758,-0.000689930908135128
7.76,3.4892956022381e-05
7.762,0.00090953383219583
7.764,0.002
7.766,0.00337229973904968
7.768,0.00509244132895975
7.77,0.00722643304934489
7.772,0.00984028317982005
7.774,0.013
7.776,0.0167025652305922
7.778,0.0206688543566754
7.78,0.0245507163044208
7.782,0.028
7.784,0.0307674817593395
7.786,0.0329996474573879
7.788,0.0349419103588489
7.79,0.0368396837284266
7.792,0.0389383808308247
7.794,0.0414834149307472
7.796,0.0447037730113203
7.798,0.0484506375793874
7.8,0.0521973866655089
7.802,0.0554009720186675
7.804,0.0575183453878461
7.806,0.0580289781310401
7.808,0.0569302926135359
7.81,0.0547376622079105
7.812,0.0519889798957538
7.814,0.0492221386586554
7.816,0.0469605967091873
7.818,0.045395812572507
7.82,0.0443872450863583
7.822,0.0437799183194667
7.824,0.043418856340558
7.826,0.0431490832183577
7.828,0.0428122513891604
7.83,0.0421724657433454
7.832,0.0409162836253769
7.834,0.0387268907472877
7.836,0.0352874728211109
7.838,0.0303049529630062
7.84,0.0240322145840481
7.842,0.0172681013902257
7.844,0.0108351944916548
7.846,0.00553494138601612
7.848,0.00168271648497476
7.85,-0.000892178885819161
7.852,-0.00238157701315089
7.854,-0.00297731018380587
7.856,-0.00287102844511333
7.858,-0.00225019033691159
7.86,-0.00129806289154827
7.862,-0.000197730901914883
7.864,0.000867720839097141
7.866,0.00171520753859633
7.868,0.00216901322331536
7.87,0.0022229047713434
7.872,0.00204013191212593
7.874,0.00179131319473264
7.876,0.00164706716823321
7.878,0.00177801238169734
7.88,0.00233986891277149
7.882,0.00314569199636844
7.884,0.00366587202466734
7.886,0.00335590091842403
7.888,0.00167127059839439
7.89,-0.00193252701466562
7.892,-0.00800000000000012
7.894,-0.0166100813235882
7.896,-0.0259794034983483
7.898,-0.0338590239239344
7.9,-0.038
7.902,-0.0379125877881391
7.904,-0.0401438379977072
7.906,-0.053
7.908,-0.078662121296825
7.91,-0.0948104419120364
7.912,-0.073
7.914,0.00267953893637424
7.916,0.098
7.918,0.178117881186059
7.92,0.255866881452979
7.922,0.356000000000002
7.924,0.491529085386149
7.926,0.628501383609573
7.928,0.721222990028212
7.93,0.724
7.932,0.614895432378527
7.934,0.467
7.936,0.356763489984521
7.938,0.279044292605157
7.94,0.208302948923214
7.942,0.119
7.944,-0.00209794443755174
7.946,-0.119
7.948,-0.193585615626068
7.95,-0.22843984822964
7.952,-0.236324156718392
7.954,-0.23
7.956,-0.219658787808854
7.958,-0.2052117331862
7.96,-0.184
7.962,-0.155658857942114
7.964,-0.129
7.966,-0.112300491341789
7.968,-0.102522462562715
7.97,-0.093799310614784
7.972,-0.0804779678558527
7.974,-0.0618166809782733
7.976,-0.0419850110088955
7.978,-0.0252532012974333
7.98,-0.013295874284988
7.982,-0.00519203150404735
7.984,9.21785958835075e-05
7.986,0.00357365292416462
7.988,0.00587933164404619
7.99,0.00724619817266858
7.992,0.00789428128603703
7.994,0.00804360976015678
7.996,0.00791331043088433
7.998,0.0077017655106561
8,0.00758661258848853
8.002,0.00774458731324928
8.004,0.00835242533380609
8.006,0.00958686229902661
8.008,0.0116246338577786
8.01,0.0146303858013305
8.012,0.0184906971961728
8.014,0.0228140803840169
8.016,0.0271969578489757
8.018,0.0312357520751616
8.02,0.0345394846130014
8.022,0.0370069555381451
8.024,0.0388267434514659
8.026,0.0402000260201512
8.028,0.041327980911388
8.03,0.0424117857923639
8.032,0.0436443578015284
8.034,0.0450286219163644
8.036,0.046377510953388
8.038,0.0474956972003777
8.04,0.048187852945112
8.042,0.0482586504753694
8.044,0.0475269495272602
8.046,0.0461379211485282
8.048,0.0445630476985509
8.05,0.0432879989850372
8.052,0.0427984448156964
8.054,0.0435622299291824
8.056,0.0456372224758744
8.058,0.0486713140178778
8.06,0.0522945710482423
8.062,0.0561370600600177
8.064,0.0598288475462536
8.066,0.063
8.068,0.0653997954020015
8.07,0.0672543576837827
8.072,0.0689090222645631
8.074,0.0707091245635624
8.076,0.073
8.078,0.0760418438450347
8.08,0.0797542907775822
8.082,0.0839718353284976
8.084,0.0885289720286356
8.086,0.0932601954088514
8.088,0.0979999999999999
8.09,0.102606599935339
8.092,0.107033087757736
8.094,0.111256275612465
8.096,0.115252975644796
8.098,0.119
8.1,0.122598729830303
8.102,0.126648822315743
8.104,0.131874503643311
8.106,0.139
8.108,0.148378513827812
8.11,0.158879152588792
8.112,0.169
8.114,0.177866375656063
8.116,0.1871125426619
8.118,0.199
8.12,0.214572148952484
8.122,0.23
8.124,0.241349543940772
8.126,0.249139083644794
8.128,0.255
8.13,0.2603014074929
8.132,0.265363355004288
8.134,0.270243625013532
8.136,0.275
8.138,0.279628770959352
8.14,0.283880262952417
8.142,0.287443309556317
8.144,0.290006744348176
8.146,0.291259400905114
8.148,0.290890112804254
8.15,0.288611752104749
8.152,0.284690075952464
8.154,0.279943726579978
8.156,0.275215384701899
8.158,0.271347731032835
8.16,0.269130328555373
8.162,0.268131032415564
8.164,0.266695989922925
8.166,0.26311823065495
8.168,0.255690784189132
8.17,0.242861714585212
8.172,0.226644878994557
8.174,0.212397475996484
8.176,0.20051535038791
8.178,0.186501506428853
8.18,0.170778094453804
8.182,0.158718877570788
8.184,0.151551512429321
8.186,0.146134001492668
8.188,0.139134362259474
8.19,0.127379247889102
8.192,0.111343931737456
8.194,0.0950438725833724
8.196,0.0801591650733843
8.198,0.0659452617774088
8.2,0.0531444079690067
8.202,0.0440177629600561
8.204,0.0391406346833044
8.206,0.0373331219759657
8.208,0.037339010236318
8.21,0.0379020848626392
8.212,0.0377993096416226
8.214,0.0365707512935147
8.216,0.0345195794721149
8.218,0.0319821422196385
8.22,0.0292947875783001
8.222,0.0267849984734534
8.224,0.0245763601426369
8.226,0.0225885601355744
8.228,0.0207324208851281
8.23,0.0189187648241601
8.232,0.0170620913149532
8.234,0.0151614690964613
8.236,0.0133005362843088
8.238,0.0115666079235413
8.24,0.0100469990592038
8.242,0.00882902473634162
8.244,0.00800000000000001
8.246,0.00760981658308801
8.248,0.00755867296996993
8.25,0
8.252,0
8.254,0
8.256,-0.00341122183690235
8.258,-0.00262558322466033
8.26,-0.00195416071886167
8.262,-0.00133094603989153
8.264,-0.000689930908135128
8.266,3.4892956022381e-05
8.268,0.00090953383219583
8.27,0.002
8.272,0.00337229973904968
8.274,0.00509244132895975
8.276,0.00722643304934489
8.278,0.00984028317982005
8.28,0.013
8.282,0.0167025652305922
8.284,0.0206688543566754
8.286,0.0245507163044208
8.288,0.028
8.29,0.0307674817593395
8.292,0.0329996474573879
8.294,0.0349419103588489
8.296,0.0368396837284266
8.298,0.0389383808308247
8.3,0.0414834149307472
8.302,0.0447037730113203
8.304,0.0484506375793874
8.306,0.0521973866655089
8.308,0.0554009720186675
8.31,0.0575183453878461
8.312,0.0580289781310401
8.314,0.0569302926135359
8.316,0.0547376622079105
8.318,0.0519889798957538
8.32,0.0492221386586554
8.322,0.0469605967091873
8.324,0.045395812572507
8.326,0.0443872450863583
8.328,0.0437799183194667
8.33,0.043418856340558
8.332,0.0431490832183577
8.334,0.0428122513891604
8.336,0.0421724657433454
8.338,0.0409162836253769
8.34,0.0387268907472877
8.342,0.0352874728211109
8.344,0.0303049529630062
8.346,0.0240322145840481
8.348,0.0172681013902257
8.35,0.0108351944916548
8.352,0.00553494138601612
8.354,0.00168271648497476
8.356,-0.000892178885819161
8.358,-0.00238157701315089
8.36,-0.00297731018380587
8.362,-0.00287102844511333
8.364,-0.00225019033691159
8.366,-0.00129806289154827
8.368,-0.000197730901914883
8.37,0.000867720839097141
8.372,0.00171520753859633
8.374,0.00216901322331536
8.376,0.0022229047713434
8.378,0.00204013191212593
8.38,0.00179131319473264
8.382,0.00164706716823321
8.384,0.00177801238169734
8.386,0.00233986891277149
8.388,0.00314569199636844
8.39,0.00366587202466734
8.392,0.00335590091842403
8.394,0.00167127059839439
8.396,-0.00193252701466562
8.398,-0.00800000000000012
8.4,-0.0166100813235882
8.402,-0.0259794034983483
8.404,-0.0338590239239344
8.406,-0.038
8.408,-0.0379125877881391
8.41,-0.0401438379977072
8.412,-0.053
8.414,-0.078662121296825
8.416,-0.0948104419120364
8.418,-0.073
8.42,0.00267953893637424
8.422,0.098
8.424,0.178117881186059
8.426,0.255866881452979
8.428,0.356000000000002
8.43,0.491529085386149
8.432,0.628501383609573
8.434,0.721222990028212
8.436,0.724
8.438,0.614895432378527
8.44,0.467
8.442,0.356763489984521
8.444,0.279044292605157
8.446,0.208302948923214
8.448,0.119
8.45,-0.00209794443755174
8.452,-0.119
8.454,-0.193585615626068
8.456,-0.22843984822964
8.458,-0.236324156718392
8.46,-0.23
8.462,-0.219658787808854
8.464,-0.2052117331862
8.466,-0.184
8.468,-0.155658857942114
8.47,-0.129
8.472,-0.112300491341789
8.474,-0.102522462562715
8.476,-0.093799310614784
8.478,-0.0804779678558527
8.48,-0.0618166809782733
8.482,-0.0419850110088955
8.484,-0.0252532012974333
8.486,-0.013295874284988
8.488,-0.00519203150404735
8.49,9.21785958835075e-05
8.492,0.00357365292416462
8.494,0.00587933164404619
8.496,0.00724619817266858
8.498,0.00789428128603703
8.5,0.00804360976015678
8.502,0.00791331043088433
8.504,0.0077017655106561
8.506,0.00758661258848853
8.508,0.00774458731324928
8.51,0.00835242533380609
8.512,0.00958686229902661
8.514,0.0116246338577786
8.516,0.0146303858013305
8.518,0.0184906971961728
8.52,0.0228140803840169
8.522,0.0271969578489757
8.524,0.0312357520751616
8.526,0.0345394846130014
8.528,0.0370069555381451
8.53,0.0388267434514659
8.532,0.0402000260201512
8.534,0.041327980911388
8.536,0.0424117857923639
8.538,0.0436443578015284
8.54,0.0450286219163644
8.542,0.046377510953388
8.544,0.0474956972003777
8.546,0.048187852945112
8.548,0.0482586504753694
8.55,0.0475269495272602
8.552,0.0461379211485282
8.554,0.0445630476985509
8.556,0.0432879989850372
8.558,0.0427984448156964
8.56,0.0435622299291824
8.562,0.0456372224758744
8.564,0.0486713140178778
8.566,0.0522945710482423
8.568,0.0561370600600177
8.57,0.0598288475462536
8.572,0.063
8.574,0.0653997954020015
8.576,0.0672543576837827
8.578,0.0689090222645631
8.58,0.0707091245635624
8.582,0.073
8.584,0.0760418438450347
8.586,0.0797542907775822
8.588,0.0839718353284976
8.59,0.0885289720286356
8.592,0.0932601954088514
8.594,0.0979999999999999
8.596,0.102606599935339
8.598,0.107033087757736
8.6,0.111256275612465
8.602,0.115252975644796
8.604,0.119
8.606,0.122598729830303
8.608,0.126648822315743
8.61,0.131874503643311
8.612,0.139
8.614,0.148378513827812
8.616,0.158879152588792
8.618,0.169
8.62,0.177866375656063
8.622,0.1871125426619
8.624,0.199
8.626,0.214572148952484
8.628,0.23
8.63,0.241349543940772
8.632,0.249139083644794
8.634,0.255
8.636,0.2603014074929
8.638,0.265363355004288
8.64,0.270243625013532
8.642,0.275
8.644,0.279628770959352
8.646,0.283880262952417
8.648,0.287443309556317
8.65,0.290006744348176
8.652,0.291259400905114
8.654,0.290890112804254
8.656,0.288611752104749
8.658,0.284690075952464
8.66,0.279943726579978
8.662,0.275215384701899
8.664,0.271347731032835
8.666,0.269130328555373
8.668,0.268131032415564
8.67,0.266695989922925
8.672,0.26311823065495
8.674,0.255690784189132
8.676,0.242861714585212
8.678,0.226644878994557
8.68,0.212397475996484
8.682,0.20051535038791
8.684,0.186501506428853
8.686,0.170778094453804
8.688,0.158718877570788
8.69,0.151551512429321
8.692,0.146134001492668
8.694,0.139134362259474
8.696,0.127379247889102
8.698,0.111343931737456
8.7,0.0950438725833724
8.702,0.0801591650733843
8.704,0.0659452617774088
8.706,0.0531444079690067
8.708,0.0440177629600561
8.71,0.0391406346833044
8.712,0.0373331219759657
8.714,0.037339010236318
8.716,0.0379020848626392
8.718,0.0377993096416226
8.72,0.0365707512935147
8.722,0.0345195794721149
8.724,0.0319821422196385
8.726,0.0292947875783001
8.728,0.0267849984734534
8.73,0.0245763601426369
8.732,0.0225885601355744
8.734,0.0207324208851281
8.736,0.0189187648241601
8.738,0.0170620913149532
8.74,0.0151614690964613
8.742,0.0133005362843088
8.744,0.0115666079235413
8.746,0.0100469990592038
8.748,0.00882902473634162
8.75,0.00800000000000001
8.752,0.00760981658308801
8.754,0.00755867296996993
8.756,0
8.758,0
8.76,-0.00341122183690235
8.762,-0.00262558322466033
8.764,-0.00195416071886167
8.766,-0.00133094603989153
8.768,-0.000689930908135128
8.77,3.4892956022381e-05
8.772,0.00090953383219583
8.774,0.002
8.776,0.00337229973904968
8.778,0.00509244132895975
8.78,0.00722643304934489
8.782,0.00984028317982005
8.784,0.013
8.786,0.0167025652305922
8.788,0.0206688543566754
8.79,0.0245507163044208
8.792,0.028
8.794,0.0307674817593395
8.796,0.0329996474573879
8.798,0.0349419103588489
8.8,0.0368396837284266
8.802,0.0389383808308247
8.804,0.0414834149307472
8.806,0.0447037730113203
8.808,0.0484506375793874
8.81,0.0521973866655089
8.812,0.0554009720186675
8.814,0.0575183453878461
8.816,0.0580289781310401
8.818,0.0569302926135359
8.82,0.0547376622079105
8.822,0.0519889798957538
8.824,0.0492221386586554
8.826,0.0469605967091873
8.828,0.045395812572507
8.83,0.0443872450863583
8.832,0.0437799183194667
8.834,0.043418856340558
8.836,0.0431490832183577
8.838,0.0428122513891604
8.84,0.0421724657433454
8.842,0.0409162836253769
8.844,0.0387268907472877
8.846,0.0352874728211109
8.848,0.0303049529630062
8.85,0.0240322145840481
8.852,0.0172681013902257
8.854,0.0108351944916548
8.856,0.00553494138601612
8.858,0.00168271648497476
8.86,-0.000892178885819161
8.862,-0.00238157701315089
8.864,-0.00297731018380587
8.866,-0.00287102844511333
8.868,-0.00225019033691159
8.87,-0.00129806289154827
8.872,-0.000197730901914883
8.874,0.000867720839097141
8.876,0.00171520753859633
8.878,0.00216901322331536
8.88,0.0022229047713434
8.882,0.00204013191212593
8.884,0.00179131319473264
8.886,0.00164706716823321
8.888,0.00177801238169734
8.89,0.00233986891277149
8.892,0.00314569199636844
8.894,0.00366587202466734
8.896,0.00335590091842403
8.898,0.00167127059839439
8.9,-0.00193252701466562
8.902,-0.00800000000000012
8.904,-0.0166100813235882
8.906,-0.0259794034983483
8.908,-0.0338590239239344
8.91,-0.038
8.912,-0.0379125877881391
8.914,-0.0401438379977072
8.916,-0.053
8.918,-0.078662121296825
8.92,-0.0948104419120364
8.922,-0.073
8.924,0.00267953893637424
8.926,0.098
8.928,0.178117881186059
8.93,0.255866881452979
8.932,0.356000000000002
8.934,0.491529085386149
8.936,0.628501383609573
8.938,0.721222990028212
8.94,0.724
8.942,0.614895432378527
8.944,0.467
8.946,0.356763489984521
8.948,0.279044292605157
8.95,0.208302948923214
8.952,0.119
8.954,-0.00209794443755174
8.956,-0.119
8.958,-0.193585615626068
8.96,-0.22843984822964
8.962,-0.236324156718392
8.964,-0.23
8.966,-0.219658787808854
8.968,-0.2052117331862
8.97,-0.184
8.972,-0.155658857942114
8.974,-0.129
8.976,-0.112300491341789
8.978,-0.102522462562715
8.98,-0.093799310614784
8.982,-0.0804779678558527
8.984,-0.0618166809782733
8.986,-0.0419850110088955
8.988,-0.0252532012974333
8.99,-0.013295874284988
8.992,-0.00519203150404735
8.994,9.21785958835075e-05
8.996,0.00357365292416462
8.998,0.00587933164404619
9,0.00724619817266858
9.002,0.00789428128603703
9.004,0.00804360976015678
9.006,0.00791331043088433
9.008,0.0077017655106561
9.01,0.00758661258848853
9.012,0.00774458731324928
9.014,0.00835242533380609
9.016,0.00958686229902661
9.018,0.0116246338577786
9.02,0.0146303858013305
9.022,0.0184906971961728
9.024,0.0228140803840169
9.026,0.0271969578489757
9.028,0.0312357520751616
9.03,0.0345394846130014
9.032,0.0370069555381451
9.034,0.0388267434514659
9.036,0.0402000260201512
9.038,0.041327980911388
9.04,0.0424117857923639
9.042,0.0436443578015284
9.044,0.0450286219163644
9.046,0.046377510953388
9.048,0.0474956972003777
9.05,0.048187852945112
9.052,0.0482586504753694
9.054,0.0475269495272602
9.056,0.0461379211485282
9.058,0.0445630476985509
9.06,0.0432879989850372
9.062,0.0427984448156964
9.064,0.0435622299291824
9.066,0.0456372224758744
9.068,0.0486713140178778
9.07,0.0522945710482423
9.072,0.0561370600600177
9.074,0.0598288475462536
9.076,0.063
9.078,0.0653997954020015
9.08,0.0672543576837827
9.082,0.0689090222645631
9.084,0.0707091245635624
9.086,0.073
9.088,0.0760418438450347
9.09,0.0797542907775822
9.092,0.0839718353284976
9.094,0.0885289720286356
9.096,0.0932601954088514
9.098,0.0979999999999999
9.1,0.102606599935339
9.102,0.107033087757736
9.104,0.111256275612465
9.106,0.115252975644796
9.108,0.119
9.11,0.122598729830303
9.112,0.126648822315743
9.114,0.131874503643311
9.116,0.139
9.118,0.148378513827812
9.12,0.158879152588792
9.122,0.169
9.124,0.177866375656063
9.126,0.1871125426619
9.128,0.199
9.13,0.214572148952484
9.132,0.23
9.134,0.241349543940772
9.136,0.249139083644794
9.138,0.255
9.14,0.2603014074929
9.142,0.265363355004288
9.144,0.270243625013532
9.146,0.275
9.148,0.279628770959352
9.15,0.283880262952417
9.152,0.287443309556317
9.154,0.290006744348176
9.156,0.291259400905114
9.158,0.290890112804254
9.16,0.288611752104749
9.162,0.284690075952464
9.164,0.279943726579978
9.166,0.275215384701899
9.168,0.271347731032835
9.17,0.269130328555373
9.172,0.268131032415564
9.174,0.266695989922925
9.176,0.26311823065495
9.178,0.255690784189132
9.18,0.242861714585212
9.182,0.226644878994557
9.184,0.212397475996484
9.186,0.20051535038791
9.188,0.186501506428853
9.19,0.170778094453804
9.192,0.158718877570788
9.194,0.151551512429321
9.196,0.146134001492668
9.198,0.139134362259474
9.2,0.127379247889102
9.202,0.111343931737456
9.204,0.0950438725833724
9.206,0.0801591650733843
9.208,0.0659452617774088
9.21,0.0531444079690067
9.212,0.0440177629600561
9.214,0.0391406346833044
9.216,0.0373331219759657
9.218,0.037339010236318
9.22,0.0379020848626392
9.222,0.0377993096416226
9.224,0.0365707512935147
9.226,0.0345195794721149
9.228,0.0319821422196385
9.23,0.0292947875783001
9.232,0.0267849984734534
9.234,0.0245763601426369
9.236,0.0225885601355744
9.238,0.0207324208851281
9.24,0.0189187648241601
9.242,0.0170620913149532
9.244,0.0151614690964613
9.246,0.0133005362843088
9.248,0.0115666079235413
9.25,0.0100469990592038
9.252,0.00882902473634162
9.254,0.00800000000000001
9.256,0.00760981658308801
9.258,0.00755867296996993
9.26,0
9.262,0
9.264,-0.00341122183690235
9.266,-0.00262558322466033
9.268,-0.00195416071886167
9.27,-0.00133094603989153
9.272,-0.000689930908135128
9.274,3.4892956022381e-05
9.276,0.00090953383219583
9.278,0.002
9.28,0.00337229973904968
9.282,0.00509244132895975
9.284,0.00722643304934489
9.286,0.00984028317982005
9.288,0.013
9.29,0.0167025652305922
9.292,0.0206688543566754
9.294,0.0245507163044208
9.296,0.028
9.298,0.0307674817593395
9.3,0.0329996474573879
9.302,0.0349419103588489
9.304,0.0368396837284266
9.306,0.0389383808308247
9.308,0.0414834149307472
9.31,0.0447037730113203
9.312,0.0484506375793874
9.314,0.0521973866655089
9.316,0.0554009720186675
9.318,0.0575183453878461
9.32,0.0580289781310401
9.322,0.0569302926135359
9.324,0.0547376622079105
9.326,0.0519889798957538
9.328,0.0492221386586554
9.33,0.0469605967091873
9.332,0.045395812572507
9.334,0.0443872450863583
9.336,0.0437799183194667
9.338,0.043418856340558
9.34,0.0431490832183577
9.342,0.0428122513891604
9.344,0.0421724657433454
9.346,0.0409162836253769
9.348,0.0387268907472877
9.35,0.0352874728211109
9.352,0.0303049529630062
9.354,0.0240322145840481
9.356,0.0172681013902257
9.358,0.0108351944916548
9.36,0.00553494138601612
9.362,0.00168271648497476
9.364,-0.000892178885819161
9.366,-0.00238157701315089
9.368,-0.00297731018380587
9.37,-0.00287102844511333
9.372,-0.00225019033691159
9.374,-0.00129806289154827
9.376,-0.000197730901914883
9.378,0.000867720839097141
9.38,0.00171520753859633
9.382,0.00216901322331536
9.384,0.0022229047713434
9.386,0.00204013191212593
9.388,0.00179131319473264
9.39,0.00164706716823321
9.392,0.00177801238169734
9.394,0.00233986891277149
9.396,0.00314569199636844
9.398,0.00366587202466734
9.4,0.00335590091842403
9.402,0.00167127059839439
9.404,-0.00193252701466562
9.406,-0.00800000000000012
9.408,-0.0166100813235882
9.41,-0.0259794034983483
9.412,-0.0338590239239344
9.414,-0.038
9.416,-0.0379125877881391
9.418,-0.0401438379977072
9.42,-0.053
9.422,-0.078662121296825
9.424,-0.0948104419120364
9.426,-0.073
9.428,0.00267953893637424
9.43,0.098
9.432,0.178117881186059
9.434,0.255866881452979
9.436,0.356000000000002
9.438,0.491529085386149
9.44,0.628501383609573
9.442,0.721222990028212
9.444,0.724
9.446,0.614895432378527
9.448,0.467
9.45,0.356763489984521
9.452,0.279044292605157
9.454,0.208302948923214
9.456,0.119
9.458,-0.00209794443755174
9.46,-0.119
9.462,-0.193585615626068
9.464,-0.22843984822964
9.466,-0.236324156718392
9.468,-0.23
9.47,-0.219658787808854
9.472,-0.2052117331862
9.474,-0.184
9.476,-0.155658857942114
9.478,-0.129
9.48,-0.112300491341789
9.482,-0.102522462562715
9.484,-0.093799310614784
9.486,-0.0804779678558527
9.488,-0.0618166809782733
9.49,-0.0419850110088955
9.492,-0.0252532012974333
9.494,-0.013295874284988
9.496,-0.00519203150404735
9.498,9.21785958835075e-05
9.5,0.00357365292416462
9.502,0.00587933164404619
9.504,0.00724619817266858
9.506,0.00789428128603703
9.508,0.00804360976015678
9.51,0.00791331043088433
9.512,0.0077017655106561
9.514,0.00758661258848853
9.516,0.00774458731324928
9.518,0.00835242533380609
9.52,0.00958686229902661
9.522,0.0116246338577786
9.524,0.0146303858013305
9.526,0.0184906971961728
9.528,0.0228140803840169
9.53,0.0271969578489757
9.532,0.0312357520751616
9.534,0.0345394846130014
9.536,0.0370069555381451
9.538,0.0388267434514659
9.54,0.0402000260201512
9.542,0.041327980911388
9.544,0.0424117857923639
9.546,0.0436443578015284
9.548,0.0450286219163644
9.55,0.046377510953388
9.552,0.0474956972003777
9.554,0.048187852945112
9.556,0.0482586504753694
9.558,0.0475269495272602
9.56,0.0461379211485282
9.562,0.0445630476985509
9.564,0.0432879989850372
9.566,0.0427984448156964
9.568,0.0435622299291824
9.57,0.0456372224758744
9.572,0.0486713140178778
9.574,0.0522945710482423
9.576,0.0561370600600177
9.578,0.0598288475462536
9.58,0.063
9.582,0.0653997954020015
9.584,0.0672543576837827
9.586,0.0689090222645631
9.588,0.0707091245635624
9.59,0.073
9.592,0.0760418438450347
9.594,0.0797542907775822
9.596,0.0839718353284976
9.598,0.0885289720286356
9.6,0.0932601954088514
9.602,0.0979999999999999
9.604,0.102606599935339
9.606,0.107033087757736
9.608,0.111256275612465
9.61,0.115252975644796
9.612,0.119
9.614,0.122598729830303
9.616,0.126648822315743
9.618,0.131874503643311
9.62,0.139
9.622,0.148378513827812
9.624,0.158879152588792
9.626,0.169
9.628,0.177866375656063
9.63,0.1871125426619
9.632,0.199
9.634,0.214572148952484
9.636,0.23
9.638,0.241349543940772
9.64,0.249139083644794
9.642,0.255
9.644,0.2603014074929
9.646,0.265363355004288
9.648,0.270243625013532
9.65,0.275
9.652,0.279628770959352
9.654,0.283880262952417
9.656,0.287443309556317
9.658,0.290006744348176
9.66,0.291259400905114
9.662,0.290890112804254
9.664,0.288611752104749
9.666,0.284690075952464
9.668,0.279943726579978
9.67,0.275215384701899
9.672,0.271347731032835
9.674,0.269130328555373
9.676,0.268131032415564
9.678,0.266695989922925
9.68,0.26311823065495
9.682,0.255690784189132
9.684,0.242861714585212
9.686,0.226644878994557
9.688,0.212397475996484
9.69,0.20051535038791
9.692,0.186501506428853
9.694,0.170778094453804
9.696,0.158718877570788
9.698,0.151551512429321
9.7,0.146134001492668
9.702,0.139134362259474
9.704,0.127379247889102
9.706,0.111343931737456
9.708,0.0950438725833724
9.71,0.0801591650733843
9.712,0.0659452617774088
9.714,0.0531444079690067
9.716,0.0440177629600561
9.718,0.0391406346833044
9.72,0.0373331219759657
9.722,0.037339010236318
9.724,0.0379020848626392
9.726,0.0377993096416226
9.728,0.0365707512935147
9.73,0.0345195794721149
9.732,0.0319821422196385
9.734,0.0292947875783001
9.736,0.0267849984734534
9.738,0.0245763601426369
9.74,0.0225885601355744
9.742,0.0207324208851281
9.744,0.0189187648241601
9.746,0.0170620913149532
9.748,0.0151614690964613
9.75,0.0133005362843088
9.752,0.0115666079235413
9.754,0.0100469990592038
9.756,0.00882902473634162
9.758,0.00800000000000001
9.76,0.00760981658308801
9.762,0.00755867296996993
9.764,0
9.766,-0.00341122183690235
9.768,-0.00262558322466033
9.77,-0.00195416071886167
9.772,-0.00133094603989153
9.774,-0.000689930908135128
9.776,3.4892956022381e-05
9.778,0.00090953383219583
9.78,0.002
9.782,0.00337229973904968
9.784,0.00509244132895975
9.786,0.00722643304934489
9.788,0.00984028317982005
9.79,0.013
9.792,0.0167025652305922
9.794,0.0206688543566754
9.796,0.0245507163044208
9.798,0.028
9.8,0.0307674817593395
9.802,0.0329996474573879
9.804,0.0349419103588489
9.806,0.0368396837284266
9.808,0.0389383808308247
9.81,0.0414834149307472
9.812,0.0447037730113203
9.814,0.0484506375793874
9.816,0.0521973866655089
9.818,0.0554009720186675
9.82,0.0575183453878461
9.822,0.0580289781310401
9.824,0.0569302926135359
9.826,0.0547376622079105
9.828,0.0519889798957538
9.83,0.0492221386586554
9.832,0.0469605967091873
9.834,0.045395812572507
9.836,0.0443872450863583
9.838,0.0437799183194667
9.84,0.043418856340558
9.842,0.0431490832183577
9.844,0.0428122513891604
9.846,0.0421724657433454
9.848,0.0409162836253769
9.85,0.0387268907472877
9.852,0.0352874728211109
9.854,0.0303049529630062
9.856,0.0240322145840481
9.858,0.0172681013902257
9.86,0.0108351944916548
9.862,0.00553494138601612
9.864,0.00168271648497476
9.866,-0.000892178885819161
9.868,-0.00238157701315089
9.87,-0.00297731018380587
9.872,-0.00287102844511333
9.874,-0.00225019033691159
9.876,-0.00129806289154827
9.878,-0.000197730901914883
9.88,0.000867720839097141
9.882,0.00171520753859633
9.884,0.00216901322331536
9.886,0.0022229047713434
9.888,0.00204013191212593
9.89,0.00179131319473264
9.892,0.00164706716823321
9.894,0.00177801238169734
9.896,0.00233986891277149
9.898,0.00314569199636844
9.9,0.00366587202466734
9.902,0.00335590091842403
9.904,0.00167127059839439
9.906,-0.00193252701466562
9.908,-0.00800000000000012
9.91,-0.0166100813235882
9.912,-0.0259794034983483
9.914,-0.0338590239239344
9.916,-0.038
9.918,-0.0379125877881391
9.92,-0.0401438379977072
9.922,-0.053
9.924,-0.078662121296825
9.926,-0.0948104419120364
9.928,-0.073
9.93,0.00267953893637424
9.932,0.098
9.934,0.178117881186059
9.936,0.255866881452979
9.938,0.356000000000002
9.94,0.491529085386149
9.942,0.628501383609573
9.944,0.721222990028212
9.946,0.724
9.948,0.614895432378527
9.95,0.467
9.952,0.356763489984521
9.954,0.279044292605157
9.956,0.208302948923214
9.958,0.119
9.96,-0.00209794443755174
9.962,-0.119
9.964,-0.193585615626068
9.966,-0.22843984822964
9.968,-0.236324156718392
9.97,-0.23
9.972,-0.219658787808854
9.974,-0.2052117331862
9.976,-0.184
9.978,-0.155658857942114
9.98,-0.129
9.982,-0.112300491341789
9.984,-0.102522462562715
9.986,-0.093799310614784
9.988,-0.0804779678558527
9.99,-0.0618166809782733
9.992,-0.0419850110088955
9.994,-0.0252532012974333
9.996,-0.013295874284988
9.998,-0.00519203150404735
10,9.21785958835075e-05
10.002,0.00357365292416462
10.004,0.00587933164404619
10.006,0.00724619817266858
10.008,0.00789428128603703
10.01,0.00804360976015678
10.012,0.00791331043088433
10.014,0.0077017655106561
10.016,0.00758661258848853
10.018,0.00774458731324928
10.02,0.00835242533380609
10.022,0.00958686229902661
10.024,0.0116246338577786
10.026,0.0146303858013305
10.028,0.0184906971961728
10.03,0.0228140803840169
10.032,0.0271969578489757
10.034,0.0312357520751616
10.036,0.0345394846130014
10.038,0.0370069555381451
10.04,0.0388267434514659
10.042,0.0402000260201512
10.044,0.041327980911388
10.046,0.0424117857923639
10.048,0.0436443578015284
10.05,0.0450286219163644
10.052,0.046377510953388
10.054,0.0474956972003777
10.056,0.048187852945112
10.058,0.0482586504753694
10.06,0.0475269495272602
10.062,0.0461379211485282
10.064,0.0445630476985509
10.066,0.0432879989850372
10.068,0.0427984448156964
10.07,0.0435622299291824
10.072,0.0456372224758744
10.074,0.0486713140178778
10.076,0.0522945710482423
10.078,0.0561370600600177
10.08,0.0598288475462536
10.082,0.063
10.084,0.0653997954020015
10.086,0.0672543576837827
10.088,0.0689090222645631
10.09,0.0707091245635624
10.092,0.073
10.094,0.0760418438450347
10.096,0.0797542907775822
10.098,0.0839718353284976
10.1,0.0885289720286356
10.102,0.0932601954088514
10.104,0.0979999999999999
10.106,0.102606599935339
10.108,0.107033087757736
10.11,0.111256275612465
10.112,0.115252975644796
10.114,0.119
10.116,0.122598729830303
10.118,0.126648822315743
10.12,0.131874503643311
10.122,0.139
10.124,0.148378513827812
10.126,0.158879152588792
10.128,0.169
10.13,0.177866375656063
10.132,0.1871125426619
10.134,0.199
10.136,0.214572148952484
10.138,0.23
10.14,0.241349543940772
10.142,0.249139083644794
10.144,0.255
10.146,0.2603014074929
10.148,0.265363355004288
10.15,0.270243625013532
10.152,0.275
10.154,0.279628770959352
10.156,0.283880262952417
10.158,0.287443309556317
10.16,0.290006744348176
10.162,0.291259400905114
10.164,0.290890112804254
10.166,0.288611752104749
10.168,0.284690075952464
10.17,0.279943726579978
10.172,0.275215384701899
10.174,0.271347731032835
10.176,0.269130328555373
10.178,0.268131032415564
10.18,0.266695989922925
10.182,0.26311823065495
10.184,0.255690784189132
10.186,0.242861714585212
10.188,0.226644878994557
10.19,0.212397475996484
10.192,0.20051535038791
10.194,0.186501506428853
10.196,0.170778094453804
10.198,0.158718877570788
10.2,0.151551512429321
10.202,0.146134001492668
10.204,0.139134362259474
10.206,0.127379247889102
10.208,0.111343931737456
10.21,0.0950438725833724
10.212,0.0801591650733843
10.214,0.0659452617774088
10.216,0.0531444079690067
10.218,0.0440177629600561
10.22,0.0391406346833044
10.222,0.0373331219759657
10.224,0.037339010236318
10.226,0.0379020848626392
10.228,0.0377993096416226
10.23,0.0365707512935147
10.232,0.0345195794721149
10.234,0.0319821422196385
10.236,0.0292947875783001
10.238,0.0267849984734534
10.24,0.0245763601426369
10.242,0.0225885601355744
10.244,0.0207324208851281
10.246,0.0189187648241601
10.248,0.0170620913149532
10.25,0.0151614690964613
10.252,0.0133005362843088
10.254,0.0115666079235413
10.256,0.0100469990592038
10.258,0.00882902473634162
10.26,0.00800000000000001
10.262,0.00760981658308801
10.264,0.00755867296996993
10.266,0
10.268,-0.00341122183690235
10.27,-0.00262558322466033
10.272,-0.00195416071886167
10.274,-0.00133094603989153
10.276,-0.000689930908135128
10.278,3.4892956022381e-05
10.28,0.00090953383219583
10.282,0.002
10.284,0.00337229973904968
10.286,0.00509244132895975
10.288,0.00722643304934489
10.29,0.00984028317982005
10.292,0.013
10.294,0.0167025652305922
10.296,0.0206688543566754
10.298,0.0245507163044208
10.3,0.028
10.302,0.0307674817593395
10.304,0.0329996474573879
10.306,0.0349419103588489
10.308,0.0368396837284266
10.31,0.0389383808308247
10.312,0.0414834149307472
10.314,0.0447037730113203
10.316,0.0484506375793874
10.318,0.0521973866655089
10.32,0.0554009720186675
10.322,0.0575183453878461
10.324,0.0580289781310401
10.326,0.0569302926135359
10.328,0.0547376622079105
10.33,0.0519889798957538
10.332,0.0492221386586554
10.334,0.0469605967091873
10.336,0.045395812572507
