0.002,0
0.004,0
0.006,0
0.008,0
0.01,0
0.012,0
0.014,0
0.016,0
0.018,0
0.02,0
0.022,0
0.024,0
0.026,0
0.028,0
0.03,0
0.032,0
0.034,0
0.036,0
0.038,0
0.04,0
0.042,0
0.044,0
0.046,0
0.048,0
0.05,0
0.052,0
0.054,0
0.056,0
0.058,0
0.06,0
0.062,0
0.064,0
0.066,0
0.068,0
0.07,0
0.072,0
0.074,0
0.076,0
0.078,0
0.08,0
0.082,0
0.084,0
0.086,0
0.088,0
0.09,0
0.092,0
0.094,0
0.096,0
0.098,0
0.1,0
0.102,0
0.104,0
0.106,0
0.108,0
0.11,0
0.112,0
0.114,0
0.116,0
0.118,0
0.12,0
0.122,0
0.124,0
0.126,0
0.128,0
0.13,0
0.132,0
0.134,0
0.136,0
0.138,0
0.14,0
0.142,0
0.144,0
0.146,0
0.148,0
0.15,0
0.152,0
0.154,0
0.156,0
0.158,0
0.16,0
0.162,0
0.164,0
0.166,0
0.168,0
0.17,0
0.172,0
0.174,0
0.176,0
0.178,0
0.18,0
0.182,0
0.184,0
0.186,0
0.188,0
0.19,0
0.192,0
0.194,0
0.196,0
0.198,0
0.2,0
0.202,0
0.204,0
0.206,0
0.208,0
0.21,0
0.212,0
0.214,0
0.216,0
0.218,0
0.22,0
0.222,0
0.224,0
0.226,0
0.228,0
0.23,0
0.232,-0.00708460711772357
0.234,-0.00875867789606505
0.236,-0.0097707094803553
0.238,-0.0100503433721833
0.24,-0.0095272210731378
0.242,-0.00813098408480784
0.244,-0.00579127390878231
0.246,-0.00243773204665004
0.248,0.002
0.25,0.00759228072957896
0.252,0.0144094686404979
0.254,0.0225219222311678
0.256,0.032
0.258,0.0426795580987543
0.26,0.0534584432925861
0.262,0.063
0.264,0.0703086533523926
0.266,0.0757531513327301
0.268,0.0800433226368714
0.27,0.0838889959606751
0.272,0.088
0.274,0.0928813623772117
0.276,0.0982189064207034
0.278,0.103493654385375
0.28,0.108186628526127
0.282,0.11177885109786
0.284,0.113769020525728
0.286,0.114062387150768
0.288,0.112970753229892
0.29,0.11082359719027
0.292,0.107950397459071
0.294,0.104680632463465
0.296,0.101322448742521
0.298,0.0976933594089958
0.3,0.0931202441493368
0.302,0.0869086507618899
0.304,0.0783641270450015
0.306,0.0668822379065784
0.308,0.0539289417744214
0.31,0.0429403503473251
0.312,0.0351370667089276
0.314,0.02943416821815
0.316,0.0246658413406259
0.318,0.0201113077210971
0.32,0.0154948241834132
0.322,0.010559996907037
0.324,0.00505043207143152
0.326,-0.00126930799882813
0.328,-0.00815266964158817
0.33,-0.0148711078571161
0.332,-0.0206751215005672
0.334,-0.0248404509021935
0.336,-0.0272233903194679
0.338,-0.0282607879370846
0.34,-0.0284147334148342
0.342,-0.0281473164125075
0.344,-0.0279110227506538
0.346,-0.0279374499472761
0.348,-0.0282373072178306
0.35,-0.0288116999385322
0.352,-0.0296617334855958
0.354,-0.0307885132352366
0.356,-0.0321931445636694
0.358,-0.0338708461454447
0.36,-0.0356814425168278
0.362,-0.0373493640757983
0.364,-0.0385931545186718
0.366,-0.0391313575417635
0.368,-0.0386825168413888
0.37,-0.0369941879126011
0.372,-0.0344811976214325
0.374,-0.0322256442048932
0.376,-0.0313386376987318
0.378,-0.0329312881386968
0.38,-0.0381147055605367
0.382,-0.048
0.384,-0.0626784974835354
0.386,-0.0781623880003917
0.388,-0.0894440775305174
0.39,-0.0915159720538615
0.392,-0.0793704775503728
0.394,-0.048
0.396,0.00787945198275486
0.398,0.0946574592451774
0.4,0.219
0.402,0.381817728105234
0.404,0.561000000000002
0.406,0.731376282654542
0.408,0.878557782582414
0.41,0.990851141183019
0.412,1.05656299985575
0.414,1.064
0.416,1.00488859171392
0.418,0.884634459890632
0.42,0.712063098122032
0.422,0.496
0.424,0.254558087983522
0.426,0.043
0.428,-0.0893680600355242
0.43,-0.154215339725855
0.432,-0.178454949553258
0.434,-0.189
0.436,-0.207222774035877
0.438,-0.232332244580807
0.44,-0.257996557042236
0.442,-0.277883856827612
0.444,-0.285662289344385
0.446,-0.275
0.448,-0.243436904532212
0.45,-0.204
0.452,-0.169825574630218
0.454,-0.139
0.456,-0.107510796946915
0.458,-0.078
0.46,-0.0537956915439227
0.462,-0.0343156316944211
0.464,-0.018
0.466,-0.00368003270056166
0.468,0.00824880719840165
0.47,0.0170000000000001
0.472,0.0220597302817335
0.474,0.024004999718662
0.476,0.0236855142602354
0.478,0.0219509798559031
0.48,0.0196511024551151
0.482,0.0176355880073211
0.484,0.0167297140094783
0.486,0.0171969035512132
0.488,0.0187387253148218
0.49,0.0210323195301075
0.492,0.0237548264268736
0.494,0.0265833862349236
0.496,0.0291951391840608
0.498,0.0312672255040886
0.5,0.0324905874761291
0.502,0.0328736145616375
0.504,0.0327421434024014
0.506,0.0324358126915276
0.508,0.0322942611221227
0.51,0.0326571273872933
0.512,0.033864050180146
0.514,0.0362546681937876
0.516,0.0401436841055604
0.518,0.0452722722302258
0.52,0.0508080785199653
0.522,0.0558938129111955
0.524,0.0596998208139116
0.526,0.0620320635304039
0.528,0.0633321182552582
0.53,0.0640691976566383
0.532,0.0647125144027081
0.534,0.0657312811616315
0.536,0.0675947106015724
0.538,0.0707720153906946
0.54,0.075707707542456
0.542,0.0822781840120751
0.544,0.0897917266965311
0.546,0.0975319168380971
0.548,0.104782335679046
0.55,0.110850674447582
0.552,0.115599154048302
0.554,0.119444525062197
0.556,0.122827648056189
0.558,0.1261893835972
0.56,0.129961074483104
0.562,0.134355154823714
0.564,0.139365150040776
0.566,0.144975067786991
0.568,0.151180214652303
0.57,0.15823577278326
0.572,0.166656799883013
0.574,0.176969652591957
0.576,0.189615019787096
0.578,0.203063231787402
0.58,0.213945376139752
0.582,0.221822535704069
0.584,0.229271456416719
0.586,0.239
0.588,0.252792250946704
0.59,0.268737184831612
0.592,0.284
0.594,0.296733016402373
0.596,0.309037040410155
0.598,0.324
0.6,0.3435530184195
0.602,0.365
0.604,0.38471751296214
0.606,0.4
0.608,0.409951929731939
0.61,0.42
0.612,0.434849768110105
0.614,0.45
0.616,0.460110519769421
0.618,0.465692175534234
0.62,0.468718571414336
0.622,0.471163311529625
0.624,0.475
0.626,0.481537130450361
0.628,0.489422754525623
0.63,0.496639813375705
0.632,0.501171248150525
0.634,0.501
0.636,0.494957174166807
0.638,0.485266532264652
0.64,0.475
0.642,0.466376167431725
0.644,0.458200282028347
0.646,0.448424255610795
0.648,0.435
0.65,0.416718057527356
0.652,0.395723492566117
0.654,0.375
0.656,0.356409315249406
0.658,0.337325335881468
0.66,0.314
0.662,0.284481119319851
0.664,0.254
0.666,0.227801351245305
0.668,0.204
0.67,0.180063475698928
0.672,0.158
0.674,0.14025968249682
0.676,0.12651949230269
0.678,0.115763113410835
0.68,0.106974229814481
0.682,0.0991530840322818
0.684,0.0916807646677251
0.686,0.084319206409132
0.688,0.0768469024702515
0.69,0.0690487177674925
0.692,0.0608560663784479
0.694,0.0523469115418942
0.696,0.0436145721538932
0.698,0.0349589980668937
0.7,0.0268867700897307
0.702,0.0199134529858649
0.704,0.0145372349964884
0.706,0.0108566443506153
0.708,0.00857054926508249
0.71,0.00736044143445785
0.712,0.00690781255330947
0.714,0.00689415431620538
0.716,0.00700095841771364
0.718,-0.00016668804860942
0.72,-0.00223528953000635
0.722,-0.00388633319178433
0.724,-0.00497424803879665
0.726,-0.00535346307589663
0.728,-0.00487840730793759
0.73,-0.00340350973977299
0.732,-0.00243773204665004
0.734,0.002
0.736,0.00759228072957896
0.738,0.0144094686404979
0.74,0.0225219222311678
0.742,0.032
0.744,0.0426795580987543
0.746,0.0534584432925861
0.748,0.063
0.75,0.0703086533523926
0.752,0.0757531513327301
0.754,0.0800433226368714
0.756,0.0838889959606751
0.758,0.088
0.76,0.0928813623772117
0.762,0.0982189064207034
0.764,0.103493654385375
0.766,0.108186628526127
0.768,0.11177885109786
0.77,0.113769020525728
0.772,0.114062387150768
0.774,0.112970753229892
0.776,0.11082359719027
0.778,0.107950397459071
0.78,0.104680632463465
0.782,0.101322448742521
0.784,0.0976933594089958
0.786,0.0931202441493368
0.788,0.0869086507618899
0.79,0.0783641270450015
0.792,0.0668822379065784
0.794,0.0539289417744214
0.796,0.0429403503473251
0.798,0.0351370667089276
0.8,0.02943416821815
0.802,0.0246658413406259
0.804,0.0201113077210971
0.806,0.0154948241834132
0.808,0.010559996907037
0.81,0.00505043207143152
0.812,-0.00126930799882813
0.814,-0.00815266964158817
0.816,-0.0148711078571161
0.818,-0.0206751215005672
0.82,-0.0248404509021935
0.822,-0.0272233903194679
0.824,-0.0282607879370846
0.826,-0.0284147334148342
0.828,-0.0281473164125075
0.83,-0.0279110227506538
0.832,-0.0279374499472761
0.834,-0.0282373072178306
0.836,-0.0288116999385322
0.838,-0.0296617334855958
0.84,-0.0307885132352366
0.842,-0.0321931445636694
0.844,-0.0338708461454447
0.846,-0.0356814425168278
0.848,-0.0373493640757983
0.85,-0.0385931545186718
0.852,-0.0391313575417635
0.854,-0.0386825168413888
0.856,-0.0369941879126011
0.858,-0.0344811976214325
0.86,-0.0322256442048932
0.862,-0.0313386376987318
0.864,-0.0329312881386968
0.866,-0.0381147055605367
0.868,-0.048
0.87,-0.0626784974835354
0.872,-0.0781623880003917
0.874,-0.0894440775305174
0.876,-0.0915159720538615
0.878,-0.0793704775503728
0.88,-0.048
0.882,0.00787945198275486
0.884,0.0946574592451774
0.886,0.219
0.888,0.381817728105234
0.89,0.561000000000002
0.892,0.731376282654542
0.894,0.878557782582414
0.896,0.990851141183019
0.898,1.05656299985575
0.9,1.064
0.902,1.00488859171392
0.904,0.884634459890632
0.906,0.712063098122032
0.908,0.496
0.91,0.254558087983522
0.912,0.043
0.914,-0.0893680600355242
0.916,-0.154215339725855
0.918,-0.178454949553258
0.92,-0.189
0.922,-0.207222774035877
0.924,-0.232332244580807
0.926,-0.257996557042236
0.928,-0.277883856827612
0.93,-0.285662289344385
0.932,-0.275
0.934,-0.243436904532212
0.936,-0.204
0.938,-0.169825574630218
0.94,-0.139
0.942,-0.107510796946915
0.944,-0.078
0.946,-0.0537956915439227
0.948,-0.0343156316944211
0.95,-0.018
0.952,-0.00368003270056166
0.954,0.00824880719840165
0.956,0.0170000000000001
0.958,0.0220597302817335
0.96,0.024004999718662
0.962,0.0236855142602354
0.964,0.0219509798559031
0.966,0.0196511024551151
0.968,0.0176355880073211
0.97,0.0167297140094783
0.972,0.0171969035512132
0.974,0.0187387253148218
0.976,0.0210323195301075
0.978,0.0237548264268736
0.98,0.0265833862349236
0.982,0.0291951391840608
0.984,0.0312672255040886
0.986,0.0324905874761291
0.988,0.0328736145616375
0.99,0.0327421434024014
0.992,0.0324358126915276
0.994,0.0322942611221227
0.996,0.0326571273872933
0.998,0.033864050180146
1,0.0362546681937876
1.002,0.0401436841055604
1.004,0.0452722722302258
1.006,0.0508080785199653
1.008,0.0558938129111955
1.01,0.0596998208139116
1.012,0.0620320635304039
1.014,0.0633321182552582
1.016,0.0640691976566383
1.018,0.0647125144027081
1.02,0.0657312811616315
1.022,0.0675947106015724
1.024,0.0707720153906946
1.026,0.075707707542456
1.028,0.0822781840120751
1.03,0.0897917266965311
1.032,0.0975319168380971
1.034,0.104782335679046
1.036,0.110850674447582
1.038,0.115599154048302
1.04,0.119444525062197
1.042,0.122827648056189
1.044,0.1261893835972
1.046,0.129961074483104
1.048,0.134355154823714
1.05,0.139365150040776
1.052,0.144975067786991
1.054,0.151180214652303
1.056,0.15823577278326
1.058,0.166656799883013
1.06,0.176969652591957
1.062,0.189615019787096
1.064,0.203063231787402
1.066,0.213945376139752
1.068,0.221822535704069
1.07,0.229271456416719
1.072,0.239
1.074,0.252792250946704
1.076,0.268737184831612
1.078,0.284
1.08,0.296733016402373
1.082,0.309037040410155
1.084,0.324
1.086,0.3435530184195
1.088,0.365
1.09,0.38471751296214
1.092,0.4
1.094,0.409951929731939
1.096,0.42
1.098,0.434849768110105
1.1,0.45
1.102,0.460110519769421
1.104,0.465692175534234
1.106,0.468718571414336
1.108,0.471163311529625
1.11,0.475
1.112,0.481537130450361
1.114,0.489422754525623
1.116,0.496639813375705
1.118,0.501171248150525
1.12,0.501
1.122,0.494957174166807
1.124,0.485266532264652
1.126,0.475
1.128,0.466376167431725
1.13,0.458200282028347
1.132,0.448424255610795
1.134,0.435
1.136,0.416718057527356
1.138,0.395723492566117
1.14,0.375
1.142,0.356409315249406
1.144,0.337325335881468
1.146,0.314
1.148,0.284481119319851
1.15,0.254
1.152,0.227801351245305
1.154,0.204
1.156,0.180063475698928
1.158,0.158
1.16,0.14025968249682
1.162,0.12651949230269
1.164,0.115763113410835
1.166,0.106974229814481
1.168,0.0991530840322818
1.17,0.0916807646677251
1.172,0.084319206409132
1.174,0.0768469024702515
1.176,0.0690487177674925
1.178,0.0608560663784479
1.18,0.0523469115418942
1.182,0.0436145721538932
1.184,0.0349589980668937
1.186,0.0268867700897307
1.188,0.0199134529858649
1.19,0.0145372349964884
1.192,0.0108566443506153
1.194,0.00857054926508249
1.196,0.00736044143445785
1.198,0.00690781255330947
1.2,0.00689415431620538
1.202,0.00700095841771364
1.204,0.00691791906911415
1.206,0.0065233883660587
1.208,-0.0012002308291526
1.21,-0.00368258256267839
1.212,-0.00559695148311412
1.214,-0.00679776659531306
1.216,-0.00713945690412848
1.218,-0.00813098408480784
1.22,-0.00579127390878231
1.222,-0.00243773204665004
1.224,0.002
1.226,0.00759228072957896
1.228,0.0144094686404979
1.23,0.0225219222311678
1.232,0.032
1.234,0.0426795580987543
1.236,0.0534584432925861
1.238,0.063
1.24,0.0703086533523926
1.242,0.0757531513327301
1.244,0.0800433226368714
1.246,0.0838889959606751
1.248,0.088
1.25,0.0928813623772117
1.252,0.0982189064207034
1.254,0.103493654385375
1.256,0.108186628526127
1.258,0.11177885109786
1.26,0.113769020525728
1.262,0.114062387150768
1.264,0.112970753229892
1.266,0.11082359719027
1.268,0.107950397459071
1.27,0.104680632463465
1.272,0.101322448742521
1.274,0.0976933594089958
1.276,0.0931202441493368
1.278,0.0869086507618899
1.28,0.0783641270450015
1.282,0.0668822379065784
1.284,0.0539289417744214
1.286,0.0429403503473251
1.288,0.0351370667089276
1.29,0.02943416821815
1.292,0.0246658413406259
1.294,0.0201113077210971
1.296,0.0154948241834132
1.298,0.010559996907037
1.3,0.00505043207143152
1.302,-0.00126930799882813
1.304,-0.00815266964158817
1.306,-0.0148711078571161
1.308,-0.0206751215005672
1.31,-0.0248404509021935
1.312,-0.0272233903194679
1.314,-0.0282607879370846
1.316,-0.0284147334148342
1.318,-0.0281473164125075
1.32,-0.0279110227506538
1.322,-0.0279374499472761
1.324,-0.0282373072178306
1.326,-0.0288116999385322
1.328,-0.0296617334855958
1.33,-0.0307885132352366
1.332,-0.0321931445636694
1.334,-0.0338708461454447
1.336,-0.0356814425168278
1.338,-0.0373493640757983
1.34,-0.0385931545186718
1.342,-0.0391313575417635
1.344,-0.0386825168413888
1.346,-0.0369941879126011
1.348,-0.0344811976214325
1.35,-0.0322256442048932
1.352,-0.0313386376987318
1.354,-0.0329312881386968
1.356,-0.0381147055605367
1.358,-0.048
1.36,-0.0626784974835354
1.362,-0.0781623880003917
1.364,-0.0894440775305174
1.366,-0.0915159720538615
1.368,-0.0793704775503728
1.37,-0.048
1.372,0.00787945198275486
1.374,0.0946574592451774
1.376,0.219
1.378,0.381817728105234
1.38,0.561000000000002
1.382,0.731376282654542
1.384,0.878557782582414
1.386,0.990851141183019
1.388,1.05656299985575
1.39,1.064
1.392,1.00488859171392
1.394,0.884634459890632
1.396,0.712063098122032
1.398,0.496
1.4,0.254558087983522
1.402,0.043
1.404,-0.0893680600355242
1.406,-0.154215339725855
1.408,-0.178454949553258
1.41,-0.189
1.412,-0.207222774035877
1.414,-0.232332244580807
1.416,-0.257996557042236
1.418,-0.277883856827612
1.42,-0.285662289344385
1.422,-0.275
1.424,-0.243436904532212
1.426,-0.204
1.428,-0.169825574630218
1.43,-0.139
1.432,-0.107510796946915
1.434,-0.078
1.436,-0.0537956915439227
1.438,-0.0343156316944211
1.44,-0.018
1.442,-0.00368003270056166
1.444,0.00824880719840165
1.446,0.0170000000000001
1.448,0.0220597302817335
1.45,0.024004999718662
1.452,0.0236855142602354
1.454,0.0219509798559031
1.456,0.0196511024551151
1.458,0.0176355880073211
1.46,0.0167297140094783
1.462,0.0171969035512132
1.464,0.0187387253148218
1.466,0.0210323195301075
1.468,0.0237548264268736
1.47,0.0265833862349236
1.472,0.0291951391840608
1.474,0.0312672255040886
1.476,0.0324905874761291
1.478,0.0328736145616375
1.48,0.0327421434024014
1.482,0.0324358126915276
1.484,0.0322942611221227
1.486,0.0326571273872933
1.488,0.033864050180146
1.49,0.0362546681937876
1.492,0.0401436841055604
1.494,0.0452722722302258
1.496,0.0508080785199653
1.498,0.0558938129111955
1.5,0.0596998208139116
1.502,0.0620320635304039
1.504,0.0633321182552582
1.506,0.0640691976566383
1.508,0.0647125144027081
1.51,0.0657312811616315
1.512,0.0675947106015724
1.514,0.0707720153906946
1.516,0.075707707542456
1.518,0.0822781840120751
1.52,0.0897917266965311
1.522,0.0975319168380971
1.524,0.104782335679046
1.526,0.110850674447582
1.528,0.115599154048302
1.53,0.119444525062197
1.532,0.122827648056189
1.534,0.1261893835972
1.536,0.129961074483104
1.538,0.134355154823714
1.54,0.139365150040776
1.542,0.144975067786991
1.544,0.151180214652303
1.546,0.15823577278326
1.548,0.166656799883013
1.55,0.176969652591957
1.552,0.189615019787096
1.554,0.203063231787402
1.556,0.213945376139752
1.558,0.221822535704069
1.56,0.229271456416719
1.562,0.239
1.564,0.252792250946704
1.566,0.268737184831612
1.568,0.284
1.57,0.296733016402373
1.572,0.309037040410155
1.574,0.324
1.576,0.3435530184195
1.578,0.365
1.58,0.38471751296214
1.582,0.4
1.584,0.409951929731939
1.586,0.42
1.588,0.434849768110105
1.59,0.45
1.592,0.460110519769421
1.594,0.465692175534234
1.596,0.468718571414336
1.598,0.471163311529625
1.6,0.475
1.602,0.481537130450361
1.604,0.489422754525623
1.606,0.496639813375705
1.608,0.501171248150525
1.61,0.501
1.612,0.494957174166807
1.614,0.485266532264652
1.616,0.475
1.618,0.466376167431725
1.62,0.458200282028347
1.622,0.448424255610795
1.624,0.435
1.626,0.416718057527356
1.628,0.395723492566117
1.63,0.375
1.632,0.356409315249406
1.634,0.337325335881468
1.636,0.314
1.638,0.284481119319851
1.64,0.254
1.642,0.227801351245305
1.644,0.204
1.646,0.180063475698928
1.648,0.158
1.65,0.14025968249682
1.652,0.12651949230269
1.654,0.115763113410835
1.656,0.106974229814481
1.658,0.0991530840322818
1.66,0.0916807646677251
1.662,0.084319206409132
1.664,0.0768469024702515
1.666,0.0690487177674925
1.668,0.0608560663784479
1.67,0.0523469115418942
1.672,0.0436145721538932
1.674,0.0349589980668937
1.676,0.0268867700897307
1.678,0.0199134529858649
1.68,0.0145372349964884
1.682,0.0108566443506153
1.684,0.00857054926508249
1.686,0.00736044143445785
1.688,0.00690781255330947
1.69,0.00689415431620538
1.692,0.00700095841771364
1.694,0.00691791906911415
1.696,0.0065233883660587
1.698,0.00588437628857097
1.7,0.00507609533338665
1.702,-0.00291084912048239
1.704,-0.00550610111919481
1.706,-0.00738294531134598
1.708,-0.0100503433721833
1.71,-0.0095272210731378
1.712,-0.00813098408480784
1.714,-0.00579127390878231
1.716,-0.00243773204665004
1.718,0.002
1.72,0.00759228072957896
1.722,0.0144094686404979
1.724,0.0225219222311678
1.726,0.032
1.728,0.0426795580987543
1.73,0.0534584432925861
1.732,0.063
1.734,0.0703086533523926
1.736,0.0757531513327301
1.738,0.0800433226368714
1.74,0.0838889959606751
1.742,0.088
1.744,0.0928813623772117
1.746,0.0982189064207034
1.748,0.103493654385375
1.75,0.108186628526127
1.752,0.11177885109786
1.754,0.113769020525728
1.756,0.114062387150768
1.758,0.112970753229892
1.76,0.11082359719027
1.762,0.107950397459071
1.764,0.104680632463465
1.766,0.101322448742521
1.768,0.0976933594089958
1.77,0.0931202441493368
1.772,0.0869086507618899
1.774,0.0783641270450015
1.776,0.0668822379065784
1.778,0.0539289417744214
1.78,0.0429403503473251
1.782,0.0351370667089276
1.784,0.02943416821815
1.786,0.0246658413406259
1.788,0.0201113077210971
1.79,0.0154948241834132
1.792,0.010559996907037
1.794,0.00505043207143152
1.796,-0.00126930799882813
1.798,-0.00815266964158817
1.8,-0.0148711078571161
1.802,-0.0206751215005672
1.804,-0.0248404509021935
1.806,-0.0272233903194679
1.808,-0.0282607879370846
1.81,-0.0284147334148342
1.812,-0.0281473164125075
1.814,-0.0279110227506538
1.816,-0.0279374499472761
1.818,-0.0282373072178306
1.82,-0.0288116999385322
1.822,-0.0296617334855958
1.824,-0.0307885132352366
1.826,-0.0321931445636694
1.828,-0.0338708461454447
1.83,-0.0356814425168278
1.832,-0.0373493640757983
1.834,-0.0385931545186718
1.836,-0.0391313575417635
1.838,-0.0386825168413888
1.84,-0.0369941879126011
1.842,-0.0344811976214325
1.844,-0.0322256442048932
1.846,-0.0313386376987318
1.848,-0.0329312881386968
1.85,-0.0381147055605367
1.852,-0.048
1.854,-0.0626784974835354
1.856,-0.0781623880003917
1.858,-0.0894440775305174
1.86,-0.0915159720538615
1.862,-0.0793704775503728
1.864,-0.048
1.866,0.00787945198275486
1.868,0.0946574592451774
1.87,0.219
1.872,0.381817728105234
1.874,0.561000000000002
1.876,0.731376282654542
1.878,0.878557782582414
1.88,0.990851141183019
1.882,1.05656299985575
1.884,1.064
1.886,1.00488859171392
1.888,0.884634459890632
1.89,0.712063098122032
1.892,0.496
1.894,0.254558087983522
1.896,0.043
1.898,-0.0893680600355242
1.9,-0.154215339725855
1.902,-0.178454949553258
1.904,-0.189
1.906,-0.207222774035877
1.908,-0.232332244580807
1.91,-0.257996557042236
1.912,-0.277883856827612
1.914,-0.285662289344385
1.916,-0.275
1.918,-0.243436904532212
1.92,-0.204
1.922,-0.169825574630218
1.924,-0.139
1.926,-0.107510796946915
1.928,-0.078
1.93,-0.0537956915439227
1.932,-0.0343156316944211
1.934,-0.018
1.936,-0.00368003270056166
1.938,0.00824880719840165
1.94,0.0170000000000001
1.942,0.0220597302817335
1.944,0.024004999718662
1.946,0.0236855142602354
1.948,0.0219509798559031
1.95,0.0196511024551151
1.952,0.0176355880073211
1.954,0.0167297140094783
1.956,0.0171969035512132
1.958,0.0187387253148218
1.96,0.0210323195301075
1.962,0.0237548264268736
1.964,0.0265833862349236
1.966,0.0291951391840608
1.968,0.0312672255040886
1.97,0.0324905874761291
1.972,0.0328736145616375
1.974,0.0327421434024014
1.976,0.0324358126915276
1.978,0.0322942611221227
1.98,0.0326571273872933
1.982,0.033864050180146
1.984,0.0362546681937876
1.986,0.0401436841055604
1.988,0.0452722722302258
1.99,0.0508080785199653
1.992,0.0558938129111955
1.994,0.0596998208139116
1.996,0.0620320635304039
1.998,0.0633321182552582
2,0.0640691976566383
2.002,0.0647125144027081
2.004,0.0657312811616315
2.006,0.0675947106015724
2.008,0.0707720153906946
2.01,0.075707707542456
2.012,0.0822781840120751
2.014,0.0897917266965311
2.016,0.0975319168380971
2.018,0.104782335679046
2.02,0.110850674447582
2.022,0.115599154048302
2.024,0.119444525062197
2.026,0.122827648056189
2.028,0.1261893835972
2.03,0.129961074483104
2.032,0.134355154823714
2.034,0.139365150040776
2.036,0.144975067786991
2.038,0.151180214652303
2.04,0.15823577278326
2.042,0.166656799883013
2.044,0.176969652591957
2.046,0.189615019787096
2.048,0.203063231787402
2.05,0.213945376139752
2.052,0.221822535704069
2.054,0.229271456416719
2.056,0.239
2.058,0.252792250946704
2.06,0.268737184831612
2.062,0.284
2.064,0.296733016402373
2.066,0.309037040410155
2.068,0.324
2.07,0.3435530184195
2.072,0.365
2.074,0.38471751296214
2.076,0.4
2.078,0.409951929731939
2.08,0.42
2.082,0.434849768110105
2.084,0.45
2.086,0.460110519769421
2.088,0.465692175534234
2.09,0.468718571414336
2.092,0.471163311529625
2.094,0.475
2.096,0.481537130450361
2.098,0.489422754525623
2.1,0.496639813375705
2.102,0.501171248150525
2.104,0.501
2.106,0.494957174166807
2.108,0.485266532264652
2.11,0.475
2.112,0.466376167431725
2.114,0.458200282028347
2.116,0.448424255610795
2.118,0.435
2.12,0.416718057527356
2.122,0.395723492566117
2.124,0.375
2.126,0.356409315249406
2.128,0.337325335881468
2.13,0.314
2.132,0.284481119319851
2.134,0.254
2.136,0.227801351245305
2.138,0.204
2.14,0.180063475698928
2.142,0.158
2.144,0.14025968249682
2.146,0.12651949230269
2.148,0.115763113410835
2.15,0.106974229814481
2.152,0.0991530840322818
2.154,0.0916807646677251
2.156,0.084319206409132
2.158,0.0768469024702515
2.16,0.0690487177674925
2.162,0.0608560663784479
2.164,0.0523469115418942
2.166,0.0436145721538932
2.168,0.0349589980668937
2.17,0.0268867700897307
2.172,0.0199134529858649
2.174,0.0145372349964884
2.176,0.0108566443506153
2.178,0.00857054926508249
2.18,0.00736044143445785
2.182,0.00690781255330947
2.184,0.00689415431620538
2.186,0.00700095841771364
2.188,0.00691791906911415
2.19,0.0065233883660587
2.192,0.00588437628857097
2.194,0.00507609533338665
2.196,0.00417375799724118
2.198,-0.00383203034085333
2.2,-0.00637091372705573
2.202,-0.0097707094803553
2.204,-0.0100503433721833
2.206,-0.0095272210731378
2.208,-0.00813098408480784
2.21,-0.00579127390878231
2.212,-0.00243773204665004
2.214,0.002
2.216,0.00759228072957896
2.218,0.0144094686404979
2.22,0.0225219222311678
2.222,0.032
2.224,0.0426795580987543
2.226,0.0534584432925861
2.228,0.063
2.23,0.0703086533523926
2.232,0.0757531513327301
2.234,0.0800433226368714
2.236,0.0838889959606751
2.238,0.088
2.24,0.0928813623772117
2.242,0.0982189064207034
2.244,0.103493654385375
2.246,0.108186628526127
2.248,0.11177885109786
2.25,0.113769020525728
2.252,0.114062387150768
2.254,0.112970753229892
2.256,0.11082359719027
2.258,0.107950397459071
2.26,0.104680632463465
2.262,0.101322448742521
2.264,0.0976933594089958
2.266,0.0931202441493368
2.268,0.0869086507618899
2.27,0.0783641270450015
2.272,0.0668822379065784
2.274,0.0539289417744214
2.276,0.0429403503473251
2.278,0.0351370667089276
2.28,0.02943416821815
2.282,0.0246658413406259
2.284,0.0201113077210971
2.286,0.0154948241834132
2.288,0.010559996907037
2.29,0.00505043207143152
2.292,-0.00126930799882813
2.294,-0.00815266964158817
2.296,-0.0148711078571161
2.298,-0.0206751215005672
2.3,-0.0248404509021935
2.302,-0.0272233903194679
2.304,-0.0282607879370846
2.306,-0.0284147334148342
2.308,-0.0281473164125075
2.31,-0.0279110227506538
2.312,-0.0279374499472761
2.314,-0.0282373072178306
2.316,-0.0288116999385322
2.318,-0.0296617334855958
2.32,-0.0307885132352366
2.322,-0.0321931445636694
2.324,-0.0338708461454447
2.326,-0.0356814425168278
2.328,-0.0373493640757983
2.33,-0.0385931545186718
2.332,-0.0391313575417635
2.334,-0.0386825168413888
2.336,-0.0369941879126011
2.338,-0.0344811976214325
2.34,-0.0322256442048932
2.342,-0.0313386376987318
2.344,-0.0329312881386968
2.346,-0.0381147055605367
2.348,-0.048
2.35,-0.0626784974835354
2.352,-0.0781623880003917
2.354,-0.0894440775305174
2.356,-0.0915159720538615
2.358,-0.0793704775503728
2.36,-0.048
2.362,0.00787945198275486
2.364,0.0946574592451774
2.366,0.219
2.368,0.381817728105234
2.37,0.561000000000002
2.372,0.731376282654542
2.374,0.878557782582414
2.376,0.990851141183019
2.378,1.05656299985575
2.38,1.064
2.382,1.00488859171392
2.384,0.884634459890632
2.386,0.712063098122032
2.388,0.496
2.39,0.254558087983522
2.392,0.043
2.394,-0.0893680600355242
2.396,-0.154215339725855
2.398,-0.178454949553258
2.4,-0.189
2.402,-0.207222774035877
2.404,-0.232332244580807
2.406,-0.257996557042236
2.408,-0.277883856827612
2.41,-0.285662289344385
2.412,-0.275
2.414,-0.243436904532212
2.416,-0.204
2.418,-0.169825574630218
2.42,-0.139
2.422,-0.107510796946915
2.424,-0.078
2.426,-0.0537956915439227
2.428,-0.0343156316944211
2.43,-0.018
2.432,-0.00368003270056166
2.434,0.00824880719840165
2.436,0.0170000000000001
2.438,0.0220597302817335
2.44,0.024004999718662
2.442,0.0236855142602354
2.444,0.0219509798559031
2.446,0.0196511024551151
2.448,0.0176355880073211
2.45,0.0167297140094783
2.452,0.0171969035512132
2.454,0.0187387253148218
2.456,0.0210323195301075
2.458,0.0237548264268736
2.46,0.0265833862349236
2.462,0.0291951391840608
2.464,0.0312672255040886
2.466,0.0324905874761291
2.468,0.0328736145616375
2.47,0.0327421434024014
2.472,0.0324358126915276
2.474,0.0322942611221227
2.476,0.0326571273872933
2.478,0.033864050180146
2.48,0.0362546681937876
2.482,0.0401436841055604
2.484,0.0452722722302258
2.486,0.0508080785199653
2.488,0.0558938129111955
2.49,0.0596998208139116
2.492,0.0620320635304039
2.494,0.0633321182552582
2.496,0.0640691976566383
2.498,0.0647125144027081
2.5,0.0657312811616315
2.502,0.0675947106015724
2.504,0.0707720153906946
2.506,0.075707707542456
2.508,0.0822781840120751
2.51,0.0897917266965311
2.512,0.0975319168380971
2.514,0.104782335679046
2.516,0.110850674447582
2.518,0.115599154048302
2.52,0.119444525062197
2.522,0.122827648056189
2.524,0.1261893835972
2.526,0.129961074483104
2.528,0.134355154823714
2.53,0.139365150040776
2.532,0.144975067786991
2.534,0.151180214652303
2.536,0.15823577278326
2.538,0.166656799883013
2.54,0.176969652591957
2.542,0.189615019787096
2.544,0.203063231787402
2.546,0.213945376139752
2.548,0.221822535704069
2.55,0.229271456416719
2.552,0.239
2.554,0.252792250946704
2.556,0.268737184831612
2.558,0.284
2.56,0.296733016402373
2.562,0.309037040410155
2.564,0.324
2.566,0.3435530184195
2.568,0.365
2.57,0.38471751296214
2.572,0.4
2.574,0.409951929731939
2.576,0.42
2.578,0.434849768110105
2.58,0.45
2.582,0.460110519769421
2.584,0.465692175534234
2.586,0.468718571414336
2.588,0.471163311529625
2.59,0.475
2.592,0.481537130450361
2.594,0.489422754525623
2.596,0.496639813375705
2.598,0.501171248150525
2.6,0.501
2.602,0.494957174166807
2.604,0.485266532264652
2.606,0.475
2.608,0.466376167431725
2.61,0.458200282028347
2.612,0.448424255610795
2.614,0.435
2.616,0.416718057527356
2.618,0.395723492566117
2.62,0.375
2.622,0.356409315249406
2.624,0.337325335881468
2.626,0.314
2.628,0.284481119319851
2.63,0.254
2.632,0.227801351245305
2.634,0.204
2.636,0.180063475698928
2.638,0.158
2.64,0.14025968249682
2.642,0.12651949230269
2.644,0.115763113410835
2.646,0.106974229814481
2.648,0.0991530840322818
2.65,0.0916807646677251
2.652,0.084319206409132
2.654,0.0768469024702515
2.656,0.0690487177674925
2.658,0.0608560663784479
2.66,0.0523469115418942
2.662,0.0436145721538932
2.664,0.0349589980668937
2.666,0.0268867700897307
2.668,0.0199134529858649
2.67,0.0145372349964884
2.672,0.0108566443506153
2.674,0.00857054926508249
2.676,0.00736044143445785
2.678,0.00690781255330947
2.68,0.00689415431620538
2.682,0.00700095841771364
2.684,0.00691791906911415
2.686,0.0065233883660587
2.688,0.00588437628857097
2.69,0.00507609533338665
2.692,0.00417375799724118
2.694,0.00325257677687024
2.696,0.00238776416900932
2.698,-0.00708460711772357
2.7,-0.00875867789606505
2.702,-0.0097707094803553
2.704,-0.0100503433721833
2.706,-0.0095272210731378
2.708,-0.00813098408480784
2.71,-0.00579127390878231
2.712,-0.00243773204665004
2.714,0.002
2.716,0.00759228072957896
2.718,0.0144094686404979
2.72,0.0225219222311678
2.722,0.032
2.724,0.0426795580987543
2.726,0.0534584432925861
2.728,0.063
2.73,0.0703086533523926
2.732,0.0757531513327301
2.734,0.0800433226368714
2.736,0.0838889959606751
2.738,0.088
2.74,0.0928813623772117
2.742,0.0982189064207034
2.744,0.103493654385375
2.746,0.108186628526127
2.748,0.11177885109786
2.75,0.113769020525728
2.752,0.114062387150768
2.754,0.112970753229892
2.756,0.11082359719027
2.758,0.107950397459071
2.76,0.104680632463465
2.762,0.101322448742521
2.764,0.0976933594089958
2.766,0.0931202441493368
2.768,0.0869086507618899
2.77,0.0783641270450015
2.772,0.0668822379065784
2.774,0.0539289417744214
2.776,0.0429403503473251
2.778,0.0351370667089276
2.78,0.02943416821815
2.782,0.0246658413406259
2.784,0.0201113077210971
2.786,0.0154948241834132
2.788,0.010559996907037
2.79,0.00505043207143152
2.792,-0.00126930799882813
2.794,-0.00815266964158817
2.796,-0.0148711078571161
2.798,-0.0206751215005672
2.8,-0.0248404509021935
2.802,-0.0272233903194679
2.804,-0.0282607879370846
2.806,-0.0284147334148342
2.808,-0.0281473164125075
2.81,-0.0279110227506538
2.812,-0.0279374499472761
2.814,-0.0282373072178306
2.816,-0.0288116999385322
2.818,-0.0296617334855958
2.82,-0.0307885132352366
2.822,-0.0321931445636694
2.824,-0.0338708461454447
2.826,-0.0356814425168278
2.828,-0.0373493640757983
2.83,-0.0385931545186718
2.832,-0.0391313575417635
2.834,-0.0386825168413888
2.836,-0.0369941879126011
2.838,-0.0344811976214325
2.84,-0.0322256442048932
2.842,-0.0313386376987318
2.844,-0.0329312881386968
2.846,-0.0381147055605367
2.848,-0.048
2.85,-0.0626784974835354
2.852,-0.0781623880003917
2.854,-0.0894440775305174
2.856,-0.0915159720538615
2.858,-0.0793704775503728
2.86,-0.048
2.862,0.00787945198275486
2.864,0.0946574592451774
2.866,0.219
2.868,0.381817728105234
2.87,0.561000000000002
2.872,0.731376282654542
2.874,0.878557782582414
2.876,0.990851141183019
2.878,1.05656299985575
2.88,1.064
2.882,1.00488859171392
2.884,0.884634459890632
2.886,0.712063098122032
2.888,0.496
2.89,0.254558087983522
2.892,0.043
2.894,-0.0893680600355242
2.896,-0.154215339725855
2.898,-0.178454949553258
2.9,-0.189
2.902,-0.207222774035877
2.904,-0.232332244580807
2.906,-0.257996557042236
2.908,-0.277883856827612
2.91,-0.285662289344385
2.912,-0.275
2.914,-0.243436904532212
2.916,-0.204
2.918,-0.169825574630218
2.92,-0.139
2.922,-0.107510796946915
2.924,-0.078
2.926,-0.0537956915439227
2.928,-0.0343156316944211
2.93,-0.018
2.932,-0.00368003270056166
2.934,0.00824880719840165
2.936,0.0170000000000001
2.938,0.0220597302817335
2.94,0.024004999718662
2.942,0.0236855142602354
2.944,0.0219509798559031
2.946,0.0196511024551151
2.948,0.0176355880073211
2.95,0.0167297140094783
2.952,0.0171969035512132
2.954,0.0187387253148218
2.956,0.0210323195301075
2.958,0.0237548264268736
2.96,0.0265833862349236
2.962,0.0291951391840608
2.964,0.0312672255040886
2.966,0.0324905874761291
2.968,0.0328736145616375
2.97,0.0327421434024014
2.972,0.0324358126915276
2.974,0.0322942611221227
2.976,0.0326571273872933
2.978,0.033864050180146
2.98,0.0362546681937876
2.982,0.0401436841055604
2.984,0.0452722722302258
2.986,0.0508080785199653
2.988,0.0558938129111955
2.99,0.0596998208139116
2.992,0.0620320635304039
2.994,0.0633321182552582
2.996,0.0640691976566383
2.998,0.0647125144027081
3,0.0657312811616315
3.002,0.0675947106015724
3.004,0.0707720153906946
3.006,0.075707707542456
3.008,0.0822781840120751
3.01,0.0897917266965311
3.012,0.0975319168380971
3.014,0.104782335679046
3.016,0.110850674447582
3.018,0.115599154048302
3.02,0.119444525062197
3.022,0.122827648056189
3.024,0.1261893835972
3.026,0.129961074483104
3.028,0.134355154823714
3.03,0.139365150040776
3.032,0.144975067786991
3.034,0.151180214652303
3.036,0.15823577278326
3.038,0.166656799883013
3.04,0.176969652591957
3.042,0.189615019787096
3.044,0.203063231787402
3.046,0.213945376139752
3.048,0.221822535704069
3.05,0.229271456416719
3.052,0.239
3.054,0.252792250946704
3.056,0.268737184831612
3.058,0.284
3.06,0.296733016402373
3.062,0.309037040410155
3.064,0.324
3.066,0.3435530184195
3.068,0.365
3.07,0.38471751296214
3.072,0.4
3.074,0.409951929731939
3.076,0.42
3.078,0.434849768110105
3.08,0.45
3.082,0.460110519769421
3.084,0.465692175534234
3.086,0.468718571414336
3.088,0.471163311529625
3.09,0.475
3.092,0.481537130450361
3.094,0.489422754525623
3.096,0.496639813375705
3.098,0.501171248150525
3.1,0.501
3.102,0.494957174166807
3.104,0.485266532264652
3.106,0.475
3.108,0.466376167431725
3.11,0.458200282028347
3.112,0.448424255610795
3.114,0.435
3.116,0.416718057527356
3.118,0.395723492566117
3.12,0.375
3.122,0.356409315249406
3.124,0.337325335881468
3.126,0.314
3.128,0.284481119319851
3.13,0.254
3.132,0.227801351245305
3.134,0.204
3.136,0.180063475698928
3.138,0.158
3.14,0.14025968249682
3.142,0.12651949230269
3.144,0.115763113410835
3.146,0.106974229814481
3.148,0.0991530840322818
3.15,0.0916807646677251
3.152,0.084319206409132
3.154,0.0768469024702515
3.156,0.0690487177674925
3.158,0.0608560663784479
3.16,0.0523469115418942
3.162,0.0436145721538932
3.164,0.0349589980668937
3.166,0.0268867700897307
3.168,0.0199134529858649
3.17,0.0145372349964884
3.172,0.0108566443506153
3.174,0.00857054926508249
3.176,0.00736044143445785
3.178,0.00690781255330947
3.18,0.00689415431620538
3.182,0.00700095841771364
3.184,0.00691791906911415
3.186,0.0065233883660587
3.188,0.00588437628857097
3.19,0.00507609533338665
3.192,0.00417375799724118
3.194,0.00325257677687024
3.196,0.00238776416900932
3.198,0
3.2,-0.00708460711772357
3.202,-0.00875867789606505
3.204,-0.0097707094803553
3.206,-0.0100503433721833
3.208,-0.0095272210731378
3.21,-0.00813098408480784
3.212,-0.00579127390878231
3.214,-0.00243773204665004
3.216,0.002
3.218,0.00759228072957896
3.22,0.0144094686404979
3.222,0.0225219222311678
3.224,0.032
3.226,0.0426795580987543
3.228,0.0534584432925861
3.23,0.063
3.232,0.0703086533523926
3.234,0.0757531513327301
3.236,0.0800433226368714
3.238,0.0838889959606751
3.24,0.088
3.242,0.0928813623772117
3.244,0.0982189064207034
3.246,0.103493654385375
3.248,0.108186628526127
3.25,0.11177885109786
3.252,0.113769020525728
3.254,0.114062387150768
3.256,0.112970753229892
3.258,0.11082359719027
3.26,0.107950397459071
3.262,0.104680632463465
3.264,0.101322448742521
3.266,0.0976933594089958
3.268,0.0931202441493368
3.27,0.0869086507618899
3.272,0.0783641270450015
3.274,0.0668822379065784
3.276,0.0539289417744214
3.278,0.0429403503473251
3.28,0.0351370667089276
3.282,0.02943416821815
3.284,0.0246658413406259
3.286,0.0201113077210971
3.288,0.0154948241834132
3.29,0.010559996907037
3.292,0.00505043207143152
3.294,-0.00126930799882813
3.296,-0.00815266964158817
3.298,-0.0148711078571161
3.3,-0.0206751215005672
3.302,-0.0248404509021935
3.304,-0.0272233903194679
3.306,-0.0282607879370846
3.308,-0.0284147334148342
3.31,-0.0281473164125075
3.312,-0.0279110227506538
3.314,-0.0279374499472761
3.316,-0.0282373072178306
3.318,-0.0288116999385322
3.32,-0.0296617334855958
3.322,-0.0307885132352366
3.324,-0.0321931445636694
3.326,-0.0338708461454447
3.328,-0.0356814425168278
3.33,-0.0373493640757983
3.332,-0.0385931545186718
3.334,-0.0391313575417635
3.336,-0.0386825168413888
3.338,-0.0369941879126011
3.34,-0.0344811976214325
3.342,-0.0322256442048932
3.344,-0.0313386376987318
3.346,-0.0329312881386968
3.348,-0.0381147055605367
3.35,-0.048
3.352,-0.0626784974835354
3.354,-0.0781623880003917
3.356,-0.0894440775305174
3.358,-0.0915159720538615
3.36,-0.0793704775503728
3.362,-0.048
3.364,0.00787945198275486
3.366,0.0946574592451774
3.368,0.219
3.37,0.381817728105234
3.372,0.561000000000002
3.374,0.731376282654542
3.376,0.878557782582414
3.378,0.990851141183019
3.38,1.05656299985575
3.382,1.064
3.384,1.00488859171392
3.386,0.884634459890632
3.388,0.712063098122032
3.39,0.496
3.392,0.254558087983522
3.394,0.043
3.396,-0.0893680600355242
3.398,-0.154215339725855
3.4,-0.178454949553258
3.402,-0.189
3.404,-0.207222774035877
3.406,-0.232332244580807
3.408,-0.257996557042236
3.41,-0.277883856827612
3.412,-0.285662289344385
3.414,-0.275
3.416,-0.243436904532212
3.418,-0.204
3.42,-0.169825574630218
3.422,-0.139
3.424,-0.107510796946915
3.426,-0.078
3.428,-0.0537956915439227
3.43,-0.0343156316944211
3.432,-0.018
3.434,-0.00368003270056166
3.436,0.00824880719840165
3.438,0.0170000000000001
3.44,0.0220597302817335
3.442,0.024004999718662
3.444,0.0236855142602354
3.446,0.0219509798559031
3.448,0.0196511024551151
3.45,0.0176355880073211
3.452,0.0167297140094783
3.454,0.0171969035512132
3.456,0.0187387253148218
3.458,0.0210323195301075
3.46,0.0237548264268736
3.462,0.0265833862349236
3.464,0.0291951391840608
3.466,0.0312672255040886
3.468,0.0324905874761291
3.47,0.0328736145616375
3.472,0.0327421434024014
3.474,0.0324358126915276
3.476,0.0322942611221227
3.478,0.0326571273872933
3.48,0.033864050180146
3.482,0.0362546681937876
3.484,0.0401436841055604
3.486,0.0452722722302258
3.488,0.0508080785199653
3.49,0.0558938129111955
3.492,0.0596998208139116
3.494,0.0620320635304039
3.496,0.0633321182552582
3.498,0.0640691976566383
3.5,0.0647125144027081
3.502,0.0657312811616315
3.504,0.0675947106015724
3.506,0.0707720153906946
3.508,0.075707707542456
3.51,0.0822781840120751
3.512,0.0897917266965311
3.514,0.0975319168380971
3.516,0.104782335679046
3.518,0.110850674447582
3.52,0.115599154048302
3.522,0.119444525062197
3.524,0.122827648056189
3.526,0.1261893835972
3.528,0.129961074483104
3.53,0.134355154823714
3.532,0.139365150040776
3.534,0.144975067786991
3.536,0.151180214652303
3.538,0.15823577278326
3.54,0.166656799883013
3.542,0.176969652591957
3.544,0.189615019787096
3.546,0.203063231787402
3.548,0.213945376139752
3.55,0.221822535704069
3.552,0.229271456416719
3.554,0.239
3.556,0.252792250946704
3.558,0.268737184831612
3.56,0.284
3.562,0.296733016402373
3.564,0.309037040410155
3.566,0.324
3.568,0.3435530184195
3.57,0.365
3.572,0.38471751296214
3.574,0.4
3.576,0.409951929731939
3.578,0.42
3.58,0.434849768110105
3.582,0.45
3.584,0.460110519769421
3.586,0.465692175534234
3.588,0.468718571414336
3.59,0.471163311529625
3.592,0.475
3.594,0.481537130450361
3.596,0.489422754525623
3.598,0.496639813375705
3.6,0.501171248150525
3.602,0.501
3.604,0.494957174166807
3.606,0.485266532264652
3.608,0.475
3.61,0.466376167431725
3.612,0.458200282028347
3.614,0.448424255610795
3.616,0.435
3.618,0.416718057527356
3.62,0.395723492566117
3.622,0.375
3.624,0.356409315249406
3.626,0.337325335881468
3.628,0.314
3.63,0.284481119319851
3.632,0.254
3.634,0.227801351245305
3.636,0.204
3.638,0.180063475698928
3.64,0.158
3.642,0.14025968249682
3.644,0.12651949230269
3.646,0.115763113410835
3.648,0.106974229814481
3.65,0.0991530840322818
3.652,0.0916807646677251
3.654,0.084319206409132
3.656,0.0768469024702515
3.658,0.0690487177674925
3.66,0.0608560663784479
3.662,0.0523469115418942
3.664,0.0436145721538932
3.666,0.0349589980668937
3.668,0.0268867700897307
3.67,0.0199134529858649
3.672,0.0145372349964884
3.674,0.0108566443506153
3.676,0.00857054926508249
3.678,0.00736044143445785
3.68,0.00690781255330947
3.682,0.00689415431620538
3.684,0.00700095841771364
3.686,0.00691791906911415
3.688,0.0065233883660587
3.69,0.00588437628857097
3.692,0.00507609533338665
3.694,0.00417375799724118
3.696,0.00325257677687024
3.698,0.00238776416900932
3.7,0
3.702,0
3.704,-0.00708460711772357
3.706,-0.00875867789606505
3.708,-0.0097707094803553
3.71,-0.0100503433721833
3.712,-0.0095272210731378
3.714,-0.00813098408480784
3.716,-0.00579127390878231
3.718,-0.00243773204665004
3.72,0.002
3.722,0.00759228072957896
3.724,0.0144094686404979
3.726,0.0225219222311678
3.728,0.032
3.73,0.0426795580987543
3.732,0.0534584432925861
3.734,0.063
3.736,0.0703086533523926
3.738,0.0757531513327301
3.74,0.0800433226368714
3.742,0.0838889959606751
3.744,0.088
3.746,0.0928813623772117
3.748,0.0982189064207034
3.75,0.103493654385375
3.752,0.108186628526127
3.754,0.11177885109786
3.756,0.113769020525728
3.758,0.114062387150768
3.76,0.112970753229892
3.762,0.11082359719027
3.764,0.107950397459071
3.766,0.104680632463465
3.768,0.101322448742521
3.77,0.0976933594089958
3.772,0.0931202441493368
3.774,0.0869086507618899
3.776,0.0783641270450015
3.778,0.0668822379065784
3.78,0.0539289417744214
3.782,0.0429403503473251
3.784,0.0351370667089276
3.786,0.02943416821815
3.788,0.0246658413406259
3.79,0.0201113077210971
3.792,0.0154948241834132
3.794,0.010559996907037
3.796,0.00505043207143152
3.798,-0.00126930799882813
3.8,-0.00815266964158817
3.802,-0.0148711078571161
3.804,-0.0206751215005672
3.806,-0.0248404509021935
3.808,-0.0272233903194679
3.81,-0.0282607879370846
3.812,-0.0284147334148342
3.814,-0.0281473164125075
3.816,-0.0279110227506538
3.818,-0.0279374499472761
3.82,-0.0282373072178306
3.822,-0.0288116999385322
3.824,-0.0296617334855958
3.826,-0.0307885132352366
3.828,-0.0321931445636694
3.83,-0.0338708461454447
3.832,-0.0356814425168278
3.834,-0.0373493640757983
3.836,-0.0385931545186718
3.838,-0.0391313575417635
3.84,-0.0386825168413888
3.842,-0.0369941879126011
3.844,-0.0344811976214325
3.846,-0.0322256442048932
3.848,-0.0313386376987318
3.85,-0.0329312881386968
3.852,-0.0381147055605367
3.854,-0.048
3.856,-0.0626784974835354
3.858,-0.0781623880003917
3.86,-0.0894440775305174
3.862,-0.0915159720538615
3.864,-0.0793704775503728
3.866,-0.048
3.868,0.00787945198275486
3.87,0.0946574592451774
3.872,0.219
3.874,0.381817728105234
3.876,0.561000000000002
3.878,0.731376282654542
3.88,0.878557782582414
3.882,0.990851141183019
3.884,1.05656299985575
3.886,1.064
3.888,1.00488859171392
3.89,0.884634459890632
3.892,0.712063098122032
3.894,0.496
3.896,0.254558087983522
3.898,0.043
3.9,-0.0893680600355242
3.902,-0.154215339725855
3.904,-0.178454949553258
3.906,-0.189
3.908,-0.207222774035877
3.91,-0.232332244580807
3.912,-0.257996557042236
3.914,-0.277883856827612
3.916,-0.285662289344385
3.918,-0.275
3.92,-0.243436904532212
3.922,-0.204
3.924,-0.169825574630218
3.926,-0.139
3.928,-0.107510796946915
3.93,-0.078
3.932,-0.0537956915439227
3.934,-0.0343156316944211
3.936,-0.018
3.938,-0.00368003270056166
3.94,0.00824880719840165
3.942,0.0170000000000001
3.944,0.0220597302817335
3.946,0.024004999718662
3.948,0.0236855142602354
3.95,0.0219509798559031
3.952,0.0196511024551151
3.954,0.0176355880073211
3.956,0.0167297140094783
3.958,0.0171969035512132
3.96,0.0187387253148218
3.962,0.0210323195301075
3.964,0.0237548264268736
3.966,0.0265833862349236
3.968,0.0291951391840608
3.97,0.0312672255040886
3.972,0.0324905874761291
3.974,0.0328736145616375
3.976,0.0327421434024014
3.978,0.0324358126915276
3.98,0.0322942611221227
3.982,0.0326571273872933
3.984,0.033864050180146
3.986,0.0362546681937876
3.988,0.0401436841055604
3.99,0.0452722722302258
3.992,0.0508080785199653
3.994,0.0558938129111955
3.996,0.0596998208139116
3.998,0.0620320635304039
4,0.0633321182552582
4.002,0.0640691976566383
4.004,0.0647125144027081
4.006,0.0657312811616315
4.008,0.0675947106015724
4.01,0.0707720153906946
4.012,0.075707707542456
4.014,0.0822781840120751
4.016,0.0897917266965311
4.018,0.0975319168380971
4.02,0.104782335679046
4.022,0.110850674447582
4.024,0.115599154048302
4.026,0.119444525062197
4.028,0.122827648056189
4.03,0.1261893835972
4.032,0.129961074483104
4.034,0.134355154823714
4.036,0.139365150040776
4.038,0.144975067786991
4.04,0.151180214652303
4.042,0.15823577278326
4.044,0.166656799883013
4.046,0.176969652591957
4.048,0.189615019787096
4.05,0.203063231787402
4.052,0.213945376139752
4.054,0.221822535704069
4.056,0.229271456416719
4.058,0.239
4.06,0.252792250946704
4.062,0.268737184831612
4.064,0.284
4.066,0.296733016402373
4.068,0.309037040410155
4.07,0.324
4.072,0.3435530184195
4.074,0.365
4.076,0.38471751296214
4.078,0.4
4.08,0.409951929731939
4.082,0.42
4.084,0.434849768110105
4.086,0.45
4.088,0.460110519769421
4.09,0.465692175534234
4.092,0.468718571414336
4.094,0.471163311529625
4.096,0.475
4.098,0.481537130450361
4.1,0.489422754525623
4.102,0.496639813375705
4.104,0.501171248150525
4.106,0.501
4.108,0.494957174166807
4.11,0.485266532264652
4.112,0.475
4.114,0.466376167431725
4.116,0.458200282028347
4.118,0.448424255610795
4.12,0.435
4.122,0.416718057527356
4.124,0.395723492566117
4.126,0.375
4.128,0.356409315249406
4.13,0.337325335881468
4.132,0.314
4.134,0.284481119319851
4.136,0.254
4.138,0.227801351245305
4.14,0.204
4.142,0.180063475698928
4.144,0.158
4.146,0.14025968249682
4.148,0.12651949230269
4.15,0.115763113410835
4.152,0.106974229814481
4.154,0.0991530840322818
4.156,0.0916807646677251
4.158,0.084319206409132
4.16,0.0768469024702515
4.162,0.0690487177674925
4.164,0.0608560663784479
4.166,0.0523469115418942
4.168,0.0436145721538932
4.17,0.0349589980668937
4.172,0.0268867700897307
4.174,0.0199134529858649
4.176,0.0145372349964884
4.178,0.0108566443506153
4.18,0.00857054926508249
4.182,0.00736044143445785
4.184,0.00690781255330947
4.186,0.00689415431620538
4.188,0.00700095841771364
4.19,0.00691791906911415
4.192,0.0065233883660587
4.194,0.00588437628857097
4.196,0.00507609533338665
4.198,0.00417375799724118
4.2,0.00325257677687024
4.202,0.00238776416900932
4.204,0
4.206,0
4.208,-0.00708460711772357
4.21,-0.00875867789606505
4.212,-0.0097707094803553
4.214,-0.0100503433721833
4.216,-0.0095272210731378
4.218,-0.00813098408480784
4.22,-0.00579127390878231
4.222,-0.00243773204665004
4.224,0.002
4.226,0.00759228072957896
4.228,0.0144094686404979
4.23,0.0225219222311678
4.232,0.032
4.234,0.0426795580987543
4.236,0.0534584432925861
4.238,0.063
4.24,0.0703086533523926
4.242,0.0757531513327301
4.244,0.0800433226368714
4.246,0.0838889959606751
4.248,0.088
4.25,0.0928813623772117
4.252,0.0982189064207034
4.254,0.103493654385375
4.256,0.108186628526127
4.258,0.11177885109786
4.26,0.113769020525728
4.262,0.114062387150768
4.264,0.112970753229892
4.266,0.11082359719027
4.268,0.107950397459071
4.27,0.104680632463465
4.272,0.101322448742521
4.274,0.0976933594089958
4.276,0.0931202441493368
4.278,0.0869086507618899
4.28,0.0783641270450015
4.282,0.0668822379065784
4.284,0.0539289417744214
4.286,0.0429403503473251
4.288,0.0351370667089276
4.29,0.02943416821815
4.292,0.0246658413406259
4.294,0.0201113077210971
4.296,0.0154948241834132
4.298,0.010559996907037
4.3,0.00505043207143152
4.302,-0.00126930799882813
4.304,-0.00815266964158817
4.306,-0.0148711078571161
4.308,-0.0206751215005672
4.31,-0.0248404509021935
4.312,-0.0272233903194679
4.314,-0.0282607879370846
4.316,-0.0284147334148342
4.318,-0.0281473164125075
4.32,-0.0279110227506538
4.322,-0.0279374499472761
4.324,-0.0282373072178306
4.326,-0.0288116999385322
4.328,-0.0296617334855958
4.33,-0.0307885132352366
4.332,-0.0321931445636694
4.334,-0.0338708461454447
4.336,-0.0356814425168278
4.338,-0.0373493640757983
4.34,-0.0385931545186718
4.342,-0.0391313575417635
4.344,-0.0386825168413888
4.346,-0.0369941879126011
4.348,-0.0344811976214325
4.35,-0.0322256442048932
4.352,-0.0313386376987318
4.354,-0.0329312881386968
4.356,-0.0381147055605367
4.358,-0.048
4.36,-0.0626784974835354
4.362,-0.0781623880003917
4.364,-0.0894440775305174
4.366,-0.0915159720538615
4.368,-0.0793704775503728
4.37,-0.048
4.372,0.00787945198275486
4.374,0.0946574592451774
4.376,0.219
4.378,0.381817728105234
4.38,0.561000000000002
4.382,0.731376282654542
4.384,0.878557782582414
4.386,0.990851141183019
4.388,1.05656299985575
4.39,1.064
4.392,1.00488859171392
4.394,0.884634459890632
4.396,0.712063098122032
4.398,0.496
4.4,0.254558087983522
4.402,0.043
4.404,-0.0893680600355242
4.406,-0.154215339725855
4.408,-0.178454949553258
4.41,-0.189
4.412,-0.207222774035877
4.414,-0.232332244580807
4.416,-0.257996557042236
4.418,-0.277883856827612
4.42,-0.285662289344385
4.422,-0.275
4.424,-0.243436904532212
4.426,-0.204
4.428,-0.169825574630218
4.43,-0.139
4.432,-0.107510796946915
4.434,-0.078
4.436,-0.0537956915439227
4.438,-0.0343156316944211
4.44,-0.018
4.442,-0.00368003270056166
4.444,0.00824880719840165
4.446,0.0170000000000001
4.448,0.0220597302817335
4.45,0.024004999718662
4.452,0.0236855142602354
4.454,0.0219509798559031
4.456,0.0196511024551151
4.458,0.0176355880073211
4.46,0.0167297140094783
4.462,0.0171969035512132
4.464,0.0187387253148218
4.466,0.0210323195301075
4.468,0.0237548264268736
4.47,0.0265833862349236
4.472,0.0291951391840608
4.474,0.0312672255040886
4.476,0.0324905874761291
4.478,0.0328736145616375
4.48,0.0327421434024014
4.482,0.0324358126915276
4.484,0.0322942611221227
4.486,0.0326571273872933
4.488,0.033864050180146
4.49,0.0362546681937876
4.492,0.0401436841055604
4.494,0.0452722722302258
4.496,0.0508080785199653
4.498,0.0558938129111955
4.5,0.0596998208139116
4.502,0.0620320635304039
4.504,0.0633321182552582
4.506,0.0640691976566383
4.508,0.0647125144027081
4.51,0.0657312811616315
4.512,0.0675947106015724
4.514,0.0707720153906946
4.516,0.075707707542456
4.518,0.0822781840120751
4.52,0.0897917266965311
4.522,0.0975319168380971
4.524,0.104782335679046
4.526,0.110850674447582
4.528,0.115599154048302
4.53,0.119444525062197
4.532,0.122827648056189
4.534,0.1261893835972
4.536,0.129961074483104
4.538,0.134355154823714
4.54,0.139365150040776
4.542,0.144975067786991
4.544,0.151180214652303
4.546,0.15823577278326
4.548,0.166656799883013
4.55,0.176969652591957
4.552,0.189615019787096
4.554,0.203063231787402
4.556,0.213945376139752
4.558,0.221822535704069
4.56,0.229271456416719
4.562,0.239
4.564,0.252792250946704
4.566,0.268737184831612
4.568,0.284
4.57,0.296733016402373
4.572,0.309037040410155
4.574,0.324
4.576,0.3435530184195
4.578,0.365
4.58,0.38471751296214
4.582,0.4
4.584,0.409951929731939
4.586,0.42
4.588,0.434849768110105
4.59,0.45
4.592,0.460110519769421
4.594,0.465692175534234
4.596,0.468718571414336
4.598,0.471163311529625
4.6,0.475
4.602,0.481537130450361
4.604,0.489422754525623
4.606,0.496639813375705
4.608,0.501171248150525
4.61,0.501
4.612,0.494957174166807
4.614,0.485266532264652
4.616,0.475
4.618,0.466376167431725
4.62,0.458200282028347
4.622,0.448424255610795
4.624,0.435
4.626,0.416718057527356
4.628,0.395723492566117
4.63,0.375
4.632,0.356409315249406
4.634,0.337325335881468
4.636,0.314
4.638,0.284481119319851
4.64,0.254
4.642,0.227801351245305
4.644,0.204
4.646,0.180063475698928
4.648,0.158
4.65,0.14025968249682
4.652,0.12651949230269
4.654,0.115763113410835
4.656,0.106974229814481
4.658,0.0991530840322818
4.66,0.0916807646677251
4.662,0.084319206409132
4.664,0.0768469024702515
4.666,0.0690487177674925
4.668,0.0608560663784479
4.67,0.0523469115418942
4.672,0.0436145721538932
4.674,0.0349589980668937
4.676,0.0268867700897307
4.678,0.0199134529858649
4.68,0.0145372349964884
4.682,0.0108566443506153
4.684,0.00857054926508249
4.686,0.00736044143445785
4.688,0.00690781255330947
4.69,0.00689415431620538
4.692,0.00700095841771364
4.694,0.00691791906911415
4.696,0.0065233883660587
4.698,0.00588437628857097
4.7,0.00507609533338665
4.702,0.00417375799724118
4.704,0.00325257677687024
4.706,0.00238776416900932
4.708,0
4.71,0
4.712,0
4.714,-0.00708460711772357
4.716,-0.00875867789606505
4.718,-0.0097707094803553
4.72,-0.0100503433721833
4.722,-0.0095272210731378
4.724,-0.00813098408480784
4.726,-0.00579127390878231
4.728,-0.00243773204665004
4.73,0.002
4.732,0.00759228072957896
4.734,0.0144094686404979
4.736,0.0225219222311678
4.738,0.032
4.74,0.0426795580987543
4.742,0.0534584432925861
4.744,0.063
4.746,0.0703086533523926
4.748,0.0757531513327301
4.75,0.0800433226368714
4.752,0.0838889959606751
4.754,0.088
4.756,0.0928813623772117
4.758,0.0982189064207034
4.76,0.103493654385375
4.762,0.108186628526127
4.764,0.11177885109786
4.766,0.113769020525728
4.768,0.114062387150768
4.77,0.112970753229892
4.772,0.11082359719027
4.774,0.107950397459071
4.776,0.104680632463465
4.778,0.101322448742521
4.78,0.0976933594089958
4.782,0.0931202441493368
4.784,0.0869086507618899
4.786,0.0783641270450015
4.788,0.0668822379065784
4.79,0.0539289417744214
4.792,0.0429403503473251
4.794,0.0351370667089276
4.796,0.02943416821815
4.798,0.0246658413406259
4.8,0.0201113077210971
4.802,0.0154948241834132
4.804,0.010559996907037
4.806,0.00505043207143152
4.808,-0.00126930799882813
4.81,-0.00815266964158817
4.812,-0.0148711078571161
4.814,-0.0206751215005672
4.816,-0.0248404509021935
4.818,-0.0272233903194679
4.82,-0.0282607879370846
4.822,-0.0284147334148342
4.824,-0.0281473164125075
4.826,-0.0279110227506538
4.828,-0.0279374499472761
4.83,-0.0282373072178306
4.832,-0.0288116999385322
4.834,-0.0296617334855958
4.836,-0.0307885132352366
4.838,-0.0321931445636694
4.84,-0.0338708461454447
4.842,-0.0356814425168278
4.844,-0.0373493640757983
4.846,-0.0385931545186718
4.848,-0.0391313575417635
4.85,-0.0386825168413888
4.852,-0.0369941879126011
4.854,-0.0344811976214325
4.856,-0.0322256442048932
4.858,-0.0313386376987318
4.86,-0.0329312881386968
4.862,-0.0381147055605367
4.864,-0.048
4.866,-0.0626784974835354
4.868,-0.0781623880003917
4.87,-0.0894440775305174
4.872,-0.0915159720538615
4.874,-0.0793704775503728
4.876,-0.048
4.878,0.00787945198275486
4.88,0.0946574592451774
4.882,0.219
4.884,0.381817728105234
4.886,0.561000000000002
4.888,0.731376282654542
4.89,0.878557782582414
4.892,0.990851141183019
4.894,1.05656299985575
4.896,1.064
4.898,1.00488859171392
4.9,0.884634459890632
4.902,0.712063098122032
4.904,0.496
4.906,0.254558087983522
4.908,0.043
4.91,-0.0893680600355242
4.912,-0.154215339725855
4.914,-0.178454949553258
4.916,-0.189
4.918,-0.207222774035877
4.92,-0.232332244580807
4.922,-0.257996557042236
4.924,-0.277883856827612
4.926,-0.285662289344385
4.928,-0.275
4.93,-0.243436904532212
4.932,-0.204
4.934,-0.169825574630218
4.936,-0.139
4.938,-0.107510796946915
4.94,-0.078
4.942,-0.0537956915439227
4.944,-0.0343156316944211
4.946,-0.018
4.948,-0.00368003270056166
4.95,0.00824880719840165
4.952,0.0170000000000001
4.954,0.0220597302817335
4.956,0.024004999718662
4.958,0.0236855142602354
4.96,0.0219509798559031
4.962,0.0196511024551151
4.964,0.0176355880073211
4.966,0.0167297140094783
4.968,0.0171969035512132
4.97,0.0187387253148218
4.972,0.0210323195301075
4.974,0.0237548264268736
4.976,0.0265833862349236
4.978,0.0291951391840608
4.98,0.0312672255040886
4.982,0.0324905874761291
4.984,0.0328736145616375
4.986,0.0327421434024014
4.988,0.0324358126915276
4.99,0.0322942611221227
4.992,0.0326571273872933
4.994,0.033864050180146
4.996,0.0362546681937876
4.998,0.0401436841055604
5,0.0452722722302258
5.002,0.0508080785199653
5.004,0.0558938129111955
5.006,0.0596998208139116
5.008,0.0620320635304039
5.01,0.0633321182552582
5.012,0.0640691976566383
5.014,0.0647125144027081
5.016,0.0657312811616315
5.018,0.0675947106015724
5.02,0.0707720153906946
5.022,0.075707707542456
5.024,0.0822781840120751
5.026,0.0897917266965311
5.028,0.0975319168380971
5.03,0.104782335679046
5.032,0.110850674447582
5.034,0.115599154048302
5.036,0.119444525062197
5.038,0.122827648056189
5.04,0.1261893835972
5.042,0.129961074483104
5.044,0.134355154823714
5.046,0.139365150040776
5.048,0.144975067786991
5.05,0.151180214652303
5.052,0.15823577278326
5.054,0.166656799883013
5.056,0.176969652591957
5.058,0.189615019787096
5.06,0.203063231787402
5.062,0.213945376139752
5.064,0.221822535704069
5.066,0.229271456416719
5.068,0.239
5.07,0.252792250946704
5.072,0.268737184831612
5.074,0.284
5.076,0.296733016402373
5.078,0.309037040410155
5.08,0.324
5.082,0.3435530184195
5.084,0.365
5.086,0.38471751296214
5.088,0.4
5.09,0.409951929731939
5.092,0.42
5.094,0.434849768110105
5.096,0.45
5.098,0.460110519769421
5.1,0.465692175534234
5.102,0.468718571414336
5.104,0.471163311529625
5.106,0.475
5.108,0.481537130450361
5.11,0.489422754525623
5.112,0.496639813375705
5.114,0.501171248150525
5.116,0.501
5.118,0.494957174166807
5.12,0.485266532264652
5.122,0.475
5.124,0.466376167431725
5.126,0.458200282028347
5.128,0.448424255610795
5.13,0.435
5.132,0.416718057527356
5.134,0.395723492566117
5.136,0.375
5.138,0.356409315249406
5.14,0.337325335881468
5.142,0.314
5.144,0.284481119319851
5.146,0.254
5.148,0.227801351245305
5.15,0.204
5.152,0.180063475698928
5.154,0.158
5.156,0.14025968249682
5.158,0.12651949230269
5.16,0.115763113410835
5.162,0.106974229814481
5.164,0.0991530840322818
5.166,0.0916807646677251
5.168,0.084319206409132
5.17,0.0768469024702515
5.172,0.0690487177674925
5.174,0.0608560663784479
5.176,0.0523469115418942
5.178,0.0436145721538932
5.18,0.0349589980668937
5.182,0.0268867700897307
5.184,0.0199134529858649
5.186,0.0145372349964884
5.188,0.0108566443506153
5.19,0.00857054926508249
5.192,0.00736044143445785
5.194,0.00690781255330947
5.196,0.00689415431620538
5.198,0.00700095841771364
5.2,0.00691791906911415
5.202,0.0065233883660587
5.204,0.00588437628857097
5.206,0.00507609533338665
5.208,0.00417375799724118
5.21,0.00325257677687024
5.212,0.00238776416900932
5.214,0
5.216,0
5.218,0
5.22,-0.00708460711772357
5.222,-0.00875867789606505
5.224,-0.0097707094803553
5.226,-0.0100503433721833
5.228,-0.0095272210731378
5.23,-0.00813098408480784
5.232,-0.00579127390878231
5.234,-0.00243773204665004
5.236,0.002
5.238,0.00759228072957896
5.24,0.0144094686404979
5.242,0.0225219222311678
5.244,0.032
5.246,0.0426795580987543
5.248,0.0534584432925861
5.25,0.063
5.252,0.0703086533523926
5.254,0.0757531513327301
5.256,0.0800433226368714
5.258,0.0838889959606751
5.26,0.088
5.262,0.0928813623772117
5.264,0.0982189064207034
5.266,0.103493654385375
5.268,0.108186628526127
5.27,0.11177885109786
5.272,0.113769020525728
5.274,0.114062387150768
5.276,0.112970753229892
5.278,0.11082359719027
5.28,0.107950397459071
5.282,0.104680632463465
5.284,0.101322448742521
5.286,0.0976933594089958
5.288,0.0931202441493368
5.29,0.0869086507618899
5.292,0.0783641270450015
5.294,0.0668822379065784
5.296,0.0539289417744214
5.298,0.0429403503473251
5.3,0.0351370667089276
5.302,0.02943416821815
5.304,0.0246658413406259
5.306,0.0201113077210971
5.308,0.0154948241834132
5.31,0.010559996907037
5.312,0.00505043207143152
5.314,-0.00126930799882813
5.316,-0.00815266964158817
5.318,-0.0148711078571161
5.32,-0.0206751215005672
5.322,-0.0248404509021935
5.324,-0.0272233903194679
5.326,-0.0282607879370846
5.328,-0.0284147334148342
5.33,-0.0281473164125075
5.332,-0.0279110227506538
5.334,-0.0279374499472761
5.336,-0.0282373072178306
5.338,-0.0288116999385322
5.34,-0.0296617334855958
5.342,-0.0307885132352366
5.344,-0.0321931445636694
5.346,-0.0338708461454447
5.348,-0.0356814425168278
5.35,-0.0373493640757983
5.352,-0.0385931545186718
5.354,-0.0391313575417635
5.356,-0.0386825168413888
5.358,-0.0369941879126011
5.36,-0.0344811976214325
5.362,-0.0322256442048932
5.364,-0.0313386376987318
5.366,-0.0329312881386968
5.368,-0.0381147055605367
5.37,-0.048
5.372,-0.0626784974835354
5.374,-0.0781623880003917
5.376,-0.0894440775305174
5.378,-0.0915159720538615
5.38,-0.0793704775503728
5.382,-0.048
5.384,0.00787945198275486
5.386,0.0946574592451774
5.388,0.219
5.39,0.381817728105234
5.392,0.561000000000002
5.394,0.731376282654542
5.396,0.878557782582414
5.398,0.990851141183019
5.4,1.05656299985575
5.402,1.064
5.404,1.00488859171392
5.406,0.884634459890632
5.408,0.712063098122032
5.41,0.496
5.412,0.254558087983522
5.414,0.043
5.416,-0.0893680600355242
5.418,-0.154215339725855
5.42,-0.178454949553258
5.422,-0.189
5.424,-0.207222774035877
5.426,-0.232332244580807
5.428,-0.257996557042236
5.43,-0.277883856827612
5.432,-0.285662289344385
5.434,-0.275
5.436,-0.243436904532212
5.438,-0.204
5.44,-0.169825574630218
5.442,-0.139
5.444,-0.107510796946915
5.446,-0.078
5.448,-0.0537956915439227
5.45,-0.0343156316944211
5.452,-0.018
5.454,-0.00368003270056166
5.456,0.00824880719840165
5.458,0.0170000000000001
5.46,0.0220597302817335
5.462,0.024004999718662
5.464,0.0236855142602354
5.466,0.0219509798559031
5.468,0.0196511024551151
5.47,0.0176355880073211
5.472,0.0167297140094783
5.474,0.0171969035512132
5.476,0.0187387253148218
5.478,0.0210323195301075
5.48,0.0237548264268736
5.482,0.0265833862349236
5.484,0.0291951391840608
5.486,0.0312672255040886
5.488,0.0324905874761291
5.49,0.0328736145616375
5.492,0.0327421434024014
5.494,0.0324358126915276
5.496,0.0322942611221227
5.498,0.0326571273872933
5.5,0.033864050180146
5.502,0.0362546681937876
5.504,0.0401436841055604
5.506,0.0452722722302258
5.508,0.0508080785199653
5.51,0.0558938129111955
5.512,0.0596998208139116
5.514,0.0620320635304039
5.516,0.0633321182552582
5.518,0.0640691976566383
5.52,0.0647125144027081
5.522,0.0657312811616315
5.524,0.0675947106015724
5.526,0.0707720153906946
5.528,0.075707707542456
5.53,0.0822781840120751
5.532,0.0897917266965311
5.534,0.0975319168380971
5.536,0.104782335679046
5.538,0.110850674447582
5.54,0.115599154048302
5.542,0.119444525062197
5.544,0.122827648056189
5.546,0.1261893835972
5.548,0.129961074483104
5.55,0.134355154823714
5.552,0.139365150040776
5.554,0.144975067786991
5.556,0.151180214652303
5.558,0.15823577278326
5.56,0.166656799883013
5.562,0.176969652591957
5.564,0.189615019787096
5.566,0.203063231787402
5.568,0.213945376139752
5.57,0.221822535704069
5.572,0.229271456416719
5.574,0.239
5.576,0.252792250946704
5.578,0.268737184831612
5.58,0.284
5.582,0.296733016402373
5.584,0.309037040410155
5.586,0.324
5.588,0.3435530184195
5.59,0.365
5.592,0.38471751296214
5.594,0.4
5.596,0.409951929731939
5.598,0.42
5.6,0.434849768110105
5.602,0.45
5.604,0.460110519769421
5.606,0.465692175534234
5.608,0.468718571414336
5.61,0.471163311529625
5.612,0.475
5.614,0.481537130450361
5.616,0.489422754525623
5.618,0.496639813375705
5.62,0.501171248150525
5.622,0.501
5.624,0.494957174166807
5.626,0.485266532264652
5.628,0.475
5.63,0.466376167431725
5.632,0.458200282028347
5.634,0.448424255610795
5.636,0.435
5.638,0.416718057527356
5.64,0.395723492566117
5.642,0.375
5.644,0.356409315249406
5.646,0.337325335881468
5.648,0.314
5.65,0.284481119319851
5.652,0.254
5.654,0.227801351245305
5.656,0.204
5.658,0.180063475698928
5.66,0.158
5.662,0.14025968249682
5.664,0.12651949230269
5.666,0.115763113410835
5.668,0.106974229814481
5.67,0.0991530840322818
5.672,0.0916807646677251
5.674,0.084319206409132
5.676,0.0768469024702515
5.678,0.0690487177674925
5.68,0.0608560663784479
5.682,0.0523469115418942
5.684,0.0436145721538932
5.686,0.0349589980668937
5.688,0.0268867700897307
5.69,0.0199134529858649
5.692,0.0145372349964884
5.694,0.0108566443506153
5.696,0.00857054926508249
5.698,0.00736044143445785
5.7,0.00690781255330947
5.702,0.00689415431620538
5.704,0.00700095841771364
5.706,0.00691791906911415
5.708,0.0065233883660587
5.71,0.00588437628857097
5.712,0.00507609533338665
5.714,0.00417375799724118
5.716,0.00325257677687024
5.718,0.00238776416900932
5.72,0
5.722,0
5.724,0
5.726,-0.00708460711772357
5.728,-0.00875867789606505
5.73,-0.0097707094803553
5.732,-0.0100503433721833
5.734,-0.0095272210731378
5.736,-0.00813098408480784
5.738,-0.00579127390878231
5.74,-0.00243773204665004
5.742,0.002
5.744,0.00759228072957896
5.746,0.0144094686404979
5.748,0.0225219222311678
5.75,0.032
5.752,0.0426795580987543
5.754,0.0534584432925861
5.756,0.063
5.758,0.0703086533523926
5.76,0.0757531513327301
5.762,0.0800433226368714
5.764,0.0838889959606751
5.766,0.088
5.768,0.0928813623772117
5.77,0.0982189064207034
5.772,0.103493654385375
5.774,0.108186628526127
5.776,0.11177885109786
5.778,0.113769020525728
5.78,0.114062387150768
5.782,0.112970753229892
5.784,0.11082359719027
5.786,0.107950397459071
5.788,0.104680632463465
5.79,0.101322448742521
5.792,0.0976933594089958
5.794,0.0931202441493368
5.796,0.0869086507618899
5.798,0.0783641270450015
5.8,0.0668822379065784
5.802,0.0539289417744214
5.804,0.0429403503473251
5.806,0.0351370667089276
5.808,0.02943416821815
5.81,0.0246658413406259
5.812,0.0201113077210971
5.814,0.0154948241834132
5.816,0.010559996907037
5.818,0.00505043207143152
5.82,-0.00126930799882813
5.822,-0.00815266964158817
5.824,-0.0148711078571161
5.826,-0.0206751215005672
5.828,-0.0248404509021935
5.83,-0.0272233903194679
5.832,-0.0282607879370846
5.834,-0.0284147334148342
5.836,-0.0281473164125075
5.838,-0.0279110227506538
5.84,-0.0279374499472761
5.842,-0.0282373072178306
5.844,-0.0288116999385322
5.846,-0.0296617334855958
5.848,-0.0307885132352366
5.85,-0.0321931445636694
5.852,-0.0338708461454447
5.854,-0.0356814425168278
5.856,-0.0373493640757983
5.858,-0.0385931545186718
5.86,-0.0391313575417635
5.862,-0.0386825168413888
5.864,-0.0369941879126011
5.866,-0.0344811976214325
5.868,-0.0322256442048932
5.87,-0.0313386376987318
5.872,-0.0329312881386968
5.874,-0.0381147055605367
5.876,-0.048
5.878,-0.0626784974835354
5.88,-0.0781623880003917
5.882,-0.0894440775305174
5.884,-0.0915159720538615
5.886,-0.0793704775503728
5.888,-0.048
5.89,0.00787945198275486
5.892,0.0946574592451774
5.894,0.219
5.896,0.381817728105234
5.898,0.561000000000002
5.9,0.731376282654542
5.902,0.878557782582414
5.904,0.990851141183019
5.906,1.05656299985575
5.908,1.064
5.91,1.00488859171392
5.912,0.884634459890632
5.914,0.712063098122032
5.916,0.496
5.918,0.254558087983522
5.92,0.043
5.922,-0.0893680600355242
5.924,-0.154215339725855
5.926,-0.178454949553258
5.928,-0.189
5.93,-0.207222774035877
5.932,-0.232332244580807
5.934,-0.257996557042236
5.936,-0.277883856827612
5.938,-0.285662289344385
5.94,-0.275
5.942,-0.243436904532212
5.944,-0.204
5.946,-0.169825574630218
5.948,-0.139
5.95,-0.107510796946915
5.952,-0.078
5.954,-0.0537956915439227
5.956,-0.0343156316944211
5.958,-0.018
5.96,-0.00368003270056166
5.962,0.00824880719840165
5.964,0.0170000000000001
5.966,0.0220597302817335
5.968,0.024004999718662
5.97,0.0236855142602354
5.972,0.0219509798559031
5.974,0.0196511024551151
5.976,0.0176355880073211
5.978,0.0167297140094783
5.98,0.0171969035512132
5.982,0.0187387253148218
5.984,0.0210323195301075
5.986,0.0237548264268736
5.988,0.0265833862349236
5.99,0.0291951391840608
5.992,0.0312672255040886
5.994,0.0324905874761291
5.996,0.0328736145616375
5.998,0.0327421434024014
6,0.0324358126915276
6.002,0.0322942611221227
6.004,0.0326571273872933
6.006,0.033864050180146
6.008,0.0362546681937876
6.01,0.0401436841055604
6.012,0.0452722722302258
6.014,0.0508080785199653
6.016,0.0558938129111955
6.018,0.0596998208139116
6.02,0.0620320635304039
6.022,0.0633321182552582
6.024,0.0640691976566383
6.026,0.0647125144027081
6.028,0.0657312811616315
6.03,0.0675947106015724
6.032,0.0707720153906946
6.034,0.075707707542456
6.036,0.0822781840120751
6.038,0.0897917266965311
6.04,0.0975319168380971
6.042,0.104782335679046
6.044,0.110850674447582
6.046,0.115599154048302
6.048,0.119444525062197
6.05,0.122827648056189
6.052,0.1261893835972
6.054,0.129961074483104
6.056,0.134355154823714
6.058,0.139365150040776
6.06,0.144975067786991
6.062,0.151180214652303
6.064,0.15823577278326
6.066,0.166656799883013
6.068,0.176969652591957
6.07,0.189615019787096
6.072,0.203063231787402
6.074,0.213945376139752
6.076,0.221822535704069
6.078,0.229271456416719
6.08,0.239
6.082,0.252792250946704
6.084,0.268737184831612
6.086,0.284
6.088,0.296733016402373
6.09,0.309037040410155
6.092,0.324
6.094,0.3435530184195
6.096,0.365
6.098,0.38471751296214
6.1,0.4
6.102,0.409951929731939
6.104,0.42
6.106,0.434849768110105
6.108,0.45
6.11,0.460110519769421
6.112,0.465692175534234
6.114,0.468718571414336
6.116,0.471163311529625
6.118,0.475
6.12,0.481537130450361
6.122,0.489422754525623
6.124,0.496639813375705
6.126,0.501171248150525
6.128,0.501
6.13,0.494957174166807
6.132,0.485266532264652
6.134,0.475
6.136,0.466376167431725
6.138,0.458200282028347
6.14,0.448424255610795
6.142,0.435
6.144,0.416718057527356
6.146,0.395723492566117
6.148,0.375
6.15,0.356409315249406
6.152,0.337325335881468
6.154,0.314
6.156,0.284481119319851
6.158,0.254
6.16,0.227801351245305
6.162,0.204
6.164,0.180063475698928
6.166,0.158
6.168,0.14025968249682
6.17,0.12651949230269
6.172,0.115763113410835
6.174,0.106974229814481
6.176,0.0991530840322818
6.178,0.0916807646677251
6.18,0.084319206409132
6.182,0.0768469024702515
6.184,0.0690487177674925
6.186,0.0608560663784479
6.188,0.0523469115418942
6.19,0.0436145721538932
6.192,0.0349589980668937
6.194,0.0268867700897307
6.196,0.0199134529858649
6.198,0.0145372349964884
6.2,0.0108566443506153
6.202,0.00857054926508249
6.204,0.00736044143445785
6.206,0.00690781255330947
6.208,0.00689415431620538
6.21,0.00700095841771364
6.212,0.00691791906911415
6.214,0.0065233883660587
6.216,0.00588437628857097
6.218,0.00507609533338665
6.22,0.00417375799724118
6.222,0.00325257677687024
6.224,0.00238776416900932
6.226,0
6.228,0
6.23,0
6.232,-0.00708460711772357
6.234,-0.00875867789606505
6.236,-0.0097707094803553
6.238,-0.0100503433721833
6.24,-0.0095272210731378
6.242,-0.00813098408480784
6.244,-0.00579127390878231
6.246,-0.00243773204665004
6.248,0.002
6.25,0.00759228072957896
6.252,0.0144094686404979
6.254,0.0225219222311678
6.256,0.032
6.258,0.0426795580987543
6.26,0.0534584432925861
6.262,0.063
6.264,0.0703086533523926
6.266,0.0757531513327301
6.268,0.0800433226368714
6.27,0.0838889959606751
6.272,0.088
6.274,0.0928813623772117
6.276,0.0982189064207034
6.278,0.103493654385375
6.28,0.108186628526127
6.282,0.11177885109786
6.284,0.113769020525728
6.286,0.114062387150768
6.288,0.112970753229892
6.29,0.11082359719027
6.292,0.107950397459071
6.294,0.104680632463465
6.296,0.101322448742521
6.298,0.0976933594089958
6.3,0.0931202441493368
6.302,0.0869086507618899
6.304,0.0783641270450015
6.306,0.0668822379065784
6.308,0.0539289417744214
6.31,0.0429403503473251
6.312,0.0351370667089276
6.314,0.02943416821815
6.316,0.0246658413406259
6.318,0.0201113077210971
6.32,0.0154948241834132
6.322,0.010559996907037
6.324,0.00505043207143152
6.326,-0.00126930799882813
6.328,-0.00815266964158817
6.33,-0.0148711078571161
6.332,-0.0206751215005672
6.334,-0.0248404509021935
6.336,-0.0272233903194679
6.338,-0.0282607879370846
6.34,-0.0284147334148342
6.342,-0.0281473164125075
6.344,-0.0279110227506538
6.346,-0.0279374499472761
6.348,-0.0282373072178306
6.35,-0.0288116999385322
6.352,-0.0296617334855958
6.354,-0.0307885132352366
6.356,-0.0321931445636694
6.358,-0.0338708461454447
6.36,-0.0356814425168278
6.362,-0.0373493640757983
6.364,-0.0385931545186718
6.366,-0.0391313575417635
6.368,-0.0386825168413888
6.37,-0.0369941879126011
6.372,-0.0344811976214325
6.374,-0.0322256442048932
6.376,-0.0313386376987318
6.378,-0.0329312881386968
6.38,-0.0381147055605367
6.382,-0.048
6.384,-0.0626784974835354
6.386,-0.0781623880003917
6.388,-0.0894440775305174
6.39,-0.0915159720538615
6.392,-0.0793704775503728
6.394,-0.048
6.396,0.00787945198275486
6.398,0.0946574592451774
6.4,0.219
6.402,0.381817728105234
6.404,0.561000000000002
6.406,0.731376282654542
6.408,0.878557782582414
6.41,0.990851141183019
6.412,1.05656299985575
6.414,1.064
6.416,1.00488859171392
6.418,0.884634459890632
6.42,0.712063098122032
6.422,0.496
6.424,0.254558087983522
6.426,0.043
6.428,-0.0893680600355242
6.43,-0.154215339725855
6.432,-0.178454949553258
6.434,-0.189
6.436,-0.207222774035877
6.438,-0.232332244580807
6.44,-0.257996557042236
6.442,-0.277883856827612
6.444,-0.285662289344385
6.446,-0.275
6.448,-0.243436904532212
6.45,-0.204
6.452,-0.169825574630218
6.454,-0.139
6.456,-0.107510796946915
6.458,-0.078
6.46,-0.0537956915439227
6.462,-0.0343156316944211
6.464,-0.018
6.466,-0.00368003270056166
6.468,0.00824880719840165
6.47,0.0170000000000001
6.472,0.0220597302817335
6.474,0.024004999718662
6.476,0.0236855142602354
6.478,0.0219509798559031
6.48,0.0196511024551151
6.482,0.0176355880073211
6.484,0.0167297140094783
6.486,0.0171969035512132
6.488,0.0187387253148218
6.49,0.0210323195301075
6.492,0.0237548264268736
6.494,0.0265833862349236
6.496,0.0291951391840608
6.498,0.0312672255040886
6.5,0.0324905874761291
6.502,0.0328736145616375
6.504,0.0327421434024014
6.506,0.0324358126915276
6.508,0.0322942611221227
6.51,0.0326571273872933
6.512,0.033864050180146
6.514,0.0362546681937876
6.516,0.0401436841055604
6.518,0.0452722722302258
6.52,0.0508080785199653
6.522,0.0558938129111955
6.524,0.0596998208139116
6.526,0.0620320635304039
6.528,0.0633321182552582
6.53,0.0640691976566383
6.532,0.0647125144027081
6.534,0.0657312811616315
6.536,0.0675947106015724
6.538,0.0707720153906946
6.54,0.075707707542456
6.542,0.0822781840120751
6.544,0.0897917266965311
6.546,0.0975319168380971
6.548,0.104782335679046
6.55,0.110850674447582
6.552,0.115599154048302
6.554,0.119444525062197
6.556,0.122827648056189
6.558,0.1261893835972
6.56,0.129961074483104
6.562,0.134355154823714
6.564,0.139365150040776
6.566,0.144975067786991
6.568,0.151180214652303
6.57,0.15823577278326
6.572,0.166656799883013
6.574,0.176969652591957
6.576,0.189615019787096
6.578,0.203063231787402
6.58,0.213945376139752
6.582,0.221822535704069
6.584,0.229271456416719
6.586,0.239
6.588,0.252792250946704
6.59,0.268737184831612
6.592,0.284
6.594,0.296733016402373
6.596,0.309037040410155
6.598,0.324
6.6,0.3435530184195
6.602,0.365
6.604,0.38471751296214
6.606,0.4
6.608,0.409951929731939
6.61,0.42
6.612,0.434849768110105
6.614,0.45
6.616,0.460110519769421
6.618,0.465692175534234
6.62,0.468718571414336
6.622,0.471163311529625
6.624,0.475
6.626,0.481537130450361
6.628,0.489422754525623
6.63,0.496639813375705
6.632,0.501171248150525
6.634,0.501
6.636,0.494957174166807
6.638,0.485266532264652
6.64,0.475
6.642,0.466376167431725
6.644,0.458200282028347
6.646,0.448424255610795
6.648,0.435
6.65,0.416718057527356
6.652,0.395723492566117
6.654,0.375
6.656,0.356409315249406
6.658,0.337325335881468
6.66,0.314
6.662,0.284481119319851
6.664,0.254
6.666,0.227801351245305
6.668,0.204
6.67,0.180063475698928
6.672,0.158
6.674,0.14025968249682
6.676,0.12651949230269
6.678,0.115763113410835
6.68,0.106974229814481
6.682,0.0991530840322818
6.684,0.0916807646677251
6.686,0.084319206409132
6.688,0.0768469024702515
6.69,0.0690487177674925
6.692,0.0608560663784479
6.694,0.0523469115418942
6.696,0.0436145721538932
6.698,0.0349589980668937
6.7,0.0268867700897307
6.702,0.0199134529858649
6.704,0.0145372349964884
6.706,0.0108566443506153
6.708,0.00857054926508249
6.71,0.00736044143445785
6.712,0.00690781255330947
6.714,0.00689415431620538
6.716,0.00700095841771364
6.718,0.00691791906911415
6.72,0.0065233883660587
6.722,0.00588437628857097
6.724,0.00507609533338665
6.726,0.00417375799724118
6.728,0.00325257677687024
6.73,0.00238776416900932
6.732,0
6.734,0
6.736,0
6.738,-0.00708460711772357
6.74,-0.00875867789606505
6.742,-0.0097707094803553
6.744,-0.0100503433721833
6.746,-0.0095272210731378
6.748,-0.00813098408480784
6.75,-0.00579127390878231
6.752,-0.00243773204665004
6.754,0.002
6.756,0.00759228072957896
6.758,0.0144094686404979
6.76,0.0225219222311678
6.762,0.032
6.764,0.0426795580987543
6.766,0.0534584432925861
6.768,0.063
6.77,0.0703086533523926
6.772,0.0757531513327301
6.774,0.0800433226368714
6.776,0.0838889959606751
6.778,0.088
6.78,0.0928813623772117
6.782,0.0982189064207034
6.784,0.103493654385375
6.786,0.108186628526127
6.788,0.11177885109786
6.79,0.113769020525728
6.792,0.114062387150768
6.794,0.112970753229892
6.796,0.11082359719027
6.798,0.107950397459071
6.8,0.104680632463465
6.802,0.101322448742521
6.804,0.0976933594089958
6.806,0.0931202441493368
6.808,0.0869086507618899
6.81,0.0783641270450015
6.812,0.0668822379065784
6.814,0.0539289417744214
6.816,0.0429403503473251
6.818,0.0351370667089276
6.82,0.02943416821815
6.822,0.0246658413406259
6.824,0.0201113077210971
6.826,0.0154948241834132
6.828,0.010559996907037
6.83,0.00505043207143152
6.832,-0.00126930799882813
6.834,-0.00815266964158817
6.836,-0.0148711078571161
6.838,-0.0206751215005672
6.84,-0.0248404509021935
6.842,-0.0272233903194679
6.844,-0.0282607879370846
6.846,-0.0284147334148342
6.848,-0.0281473164125075
6.85,-0.0279110227506538
6.852,-0.0279374499472761
6.854,-0.0282373072178306
6.856,-0.0288116999385322
6.858,-0.0296617334855958
6.86,-0.0307885132352366
6.862,-0.0321931445636694
6.864,-0.0338708461454447
6.866,-0.0356814425168278
6.868,-0.0373493640757983
6.87,-0.0385931545186718
6.872,-0.0391313575417635
6.874,-0.0386825168413888
6.876,-0.0369941879126011
6.878,-0.0344811976214325
6.88,-0.0322256442048932
6.882,-0.0313386376987318
6.884,-0.0329312881386968
6.886,-0.0381147055605367
6.888,-0.048
6.89,-0.0626784974835354
6.892,-0.0781623880003917
6.894,-0.0894440775305174
6.896,-0.0915159720538615
6.898,-0.0793704775503728
6.9,-0.048
6.902,0.00787945198275486
6.904,0.0946574592451774
6.906,0.219
6.908,0.381817728105234
6.91,0.561000000000002
6.912,0.731376282654542
6.914,0.878557782582414
6.916,0.990851141183019
6.918,1.05656299985575
6.92,1.064
6.922,1.00488859171392
6.924,0.884634459890632
6.926,0.712063098122032
6.928,0.496
6.93,0.254558087983522
6.932,0.043
6.934,-0.0893680600355242
6.936,-0.154215339725855
6.938,-0.178454949553258
6.94,-0.189
6.942,-0.207222774035877
6.944,-0.232332244580807
6.946,-0.257996557042236
6.948,-0.277883856827612
6.95,-0.285662289344385
6.952,-0.275
6.954,-0.243436904532212
6.956,-0.204
6.958,-0.169825574630218
6.96,-0.139
6.962,-0.107510796946915
6.964,-0.078
6.966,-0.0537956915439227
6.968,-0.0343156316944211
6.97,-0.018
6.972,-0.00368003270056166
6.974,0.00824880719840165
6.976,0.0170000000000001
6.978,0.0220597302817335
6.98,0.024004999718662
6.982,0.0236855142602354
6.984,0.0219509798559031
6.986,0.0196511024551151
6.988,0.0176355880073211
6.99,0.0167297140094783
6.992,0.0171969035512132
6.994,0.0187387253148218
6.996,0.0210323195301075
6.998,0.0237548264268736
7,0.0265833862349236
7.002,0.0291951391840608
7.004,0.0312672255040886
7.006,0.0324905874761291
7.008,0.0328736145616375
7.01,0.0327421434024014
7.012,0.0324358126915276
7.014,0.0322942611221227
7.016,0.0326571273872933
7.018,0.033864050180146
7.02,0.0362546681937876
7.022,0.0401436841055604
7.024,0.0452722722302258
7.026,0.0508080785199653
7.028,0.0558938129111955
7.03,0.0596998208139116
7.032,0.0620320635304039
7.034,0.0633321182552582
7.036,0.0640691976566383
7.038,0.0647125144027081
7.04,0.0657312811616315
7.042,0.0675947106015724
7.044,0.0707720153906946
7.046,0.075707707542456
7.048,0.0822781840120751
7.05,0.0897917266965311
7.052,0.0975319168380971
7.054,0.104782335679046
7.056,0.110850674447582
7.058,0.115599154048302
7.06,0.119444525062197
7.062,0.122827648056189
7.064,0.1261893835972
7.066,0.129961074483104
7.068,0.134355154823714
7.07,0.139365150040776
7.072,0.144975067786991
7.074,0.151180214652303
7.076,0.15823577278326
7.078,0.166656799883013
7.08,0.176969652591957
7.082,0.189615019787096
7.084,0.203063231787402
7.086,0.213945376139752
7.088,0.221822535704069
7.09,0.229271456416719
7.092,0.239
7.094,0.252792250946704
7.096,0.268737184831612
7.098,0.284
7.1,0.296733016402373
7.102,0.309037040410155
7.104,0.324
7.106,0.3435530184195
7.108,0.365
7.11,0.38471751296214
7.112,0.4
7.114,0.409951929731939
7.116,0.42
7.118,0.434849768110105
7.12,0.45
7.122,0.460110519769421
7.124,0.465692175534234
7.126,0.468718571414336
7.128,0.471163311529625
7.13,0.475
7.132,0.481537130450361
7.134,0.489422754525623
7.136,0.496639813375705
7.138,0.501171248150525
7.14,0.501
7.142,0.494957174166807
7.144,0.485266532264652
7.146,0.475
7.148,0.466376167431725
7.15,0.458200282028347
7.152,0.448424255610795
7.154,0.435
7.156,0.416718057527356
7.158,0.395723492566117
7.16,0.375
7.162,0.356409315249406
7.164,0.337325335881468
7.166,0.314
7.168,0.284481119319851
7.17,0.254
7.172,0.227801351245305
7.174,0.204
7.176,0.180063475698928
7.178,0.158
7.18,0.14025968249682
7.182,0.12651949230269
7.184,0.115763113410835
7.186,0.106974229814481
7.188,0.0991530840322818
7.19,0.0916807646677251
7.192,0.084319206409132
7.194,0.0768469024702515
7.196,0.0690487177674925
7.198,0.0608560663784479
7.2,0.0523469115418942
7.202,0.0436145721538932
7.204,0.0349589980668937
7.206,0.0268867700897307
7.208,0.0199134529858649
7.21,0.0145372349964884
7.212,0.0108566443506153
7.214,0.00857054926508249
7.216,0.00736044143445785
7.218,0.00690781255330947
7.22,0.00689415431620538
7.222,0.00700095841771364
7.224,0.00691791906911415
7.226,0.0065233883660587
7.228,0.00588437628857097
7.23,0.00507609533338665
7.232,0.00417375799724118
7.234,0.00325257677687024
7.236,0.00238776416900932
7.238,0
7.24,0
7.242,0
7.244,-0.00708460711772357
7.246,-0.00875867789606505
7.248,-0.0097707094803553
7.25,-0.0100503433721833
7.252,-0.0095272210731378
7.254,-0.00813098408480784
7.256,-0.00579127390878231
7.258,-0.00243773204665004
7.26,0.002
7.262,0.00759228072957896
7.264,0.0144094686404979
7.266,0.0225219222311678
7.268,0.032
7.27,0.0426795580987543
7.272,0.0534584432925861
7.274,0.063
7.276,0.0703086533523926
7.278,0.0757531513327301
7.28,0.0800433226368714
7.282,0.0838889959606751
7.284,0.088
7.286,0.0928813623772117
7.288,0.0982189064207034
7.29,0.103493654385375
7.292,0.108186628526127
7.294,0.11177885109786
7.296,0.113769020525728
7.298,0.114062387150768
7.3,0.112970753229892
7.302,0.11082359719027
7.304,0.107950397459071
7.306,0.104680632463465
7.308,0.101322448742521
7.31,0.0976933594089958
7.312,0.0931202441493368
7.314,0.0869086507618899
7.316,0.0783641270450015
7.318,0.0668822379065784
7.32,0.0539289417744214
7.322,0.0429403503473251
7.324,0.0351370667089276
7.326,0.02943416821815
7.328,0.0246658413406259
7.33,0.0201113077210971
7.332,0.0154948241834132
7.334,0.010559996907037
7.336,0.00505043207143152
7.338,-0.00126930799882813
7.34,-0.00815266964158817
7.342,-0.0148711078571161
7.344,-0.0206751215005672
7.346,-0.0248404509021935
7.348,-0.0272233903194679
7.35,-0.0282607879370846
7.352,-0.0284147334148342
7.354,-0.0281473164125075
7.356,-0.0279110227506538
7.358,-0.0279374499472761
7.36,-0.0282373072178306
7.362,-0.0288116999385322
7.364,-0.0296617334855958
7.366,-0.0307885132352366
7.368,-0.0321931445636694
7.37,-0.0338708461454447
7.372,-0.0356814425168278
7.374,-0.0373493640757983
7.376,-0.0385931545186718
7.378,-0.0391313575417635
7.38,-0.0386825168413888
7.382,-0.0369941879126011
7.384,-0.0344811976214325
7.386,-0.0322256442048932
7.388,-0.0313386376987318
7.39,-0.0329312881386968
7.392,-0.0381147055605367
7.394,-0.048
7.396,-0.0626784974835354
7.398,-0.0781623880003917
7.4,-0.0894440775305174
7.402,-0.0915159720538615
7.404,-0.0793704775503728
7.406,-0.048
7.408,0.00787945198275486
7.41,0.0946574592451774
7.412,0.219
7.414,0.381817728105234
7.416,0.561000000000002
7.418,0.731376282654542
7.42,0.878557782582414
7.422,0.990851141183019
7.424,1.05656299985575
7.426,1.064
7.428,1.00488859171392
7.43,0.884634459890632
7.432,0.712063098122032
7.434,0.496
7.436,0.254558087983522
7.438,0.043
7.44,-0.0893680600355242
7.442,-0.154215339725855
7.444,-0.178454949553258
7.446,-0.189
7.448,-0.207222774035877
7.45,-0.232332244580807
7.452,-0.257996557042236
7.454,-0.277883856827612
7.456,-0.285662289344385
7.458,-0.275
7.46,-0.243436904532212
7.462,-0.204
7.464,-0.169825574630218
7.466,-0.139
7.468,-0.107510796946915
7.47,-0.078
7.472,-0.0537956915439227
7.474,-0.0343156316944211
7.476,-0.018
7.478,-0.00368003270056166
7.48,0.00824880719840165
7.482,0.0170000000000001
7.484,0.0220597302817335
7.486,0.024004999718662
7.488,0.0236855142602354
7.49,0.0219509798559031
7.492,0.0196511024551151
7.494,0.0176355880073211
7.496,0.0167297140094783
7.498,0.0171969035512132
7.5,0.0187387253148218
7.502,0.0210323195301075
7.504,0.0237548264268736
7.506,0.0265833862349236
7.508,0.0291951391840608
7.51,0.0312672255040886
7.512,0.0324905874761291
7.514,0.0328736145616375
7.516,0.0327421434024014
7.518,0.0324358126915276
7.52,0.0322942611221227
7.522,0.0326571273872933
7.524,0.033864050180146
7.526,0.0362546681937876
7.528,0.0401436841055604
7.53,0.0452722722302258
7.532,0.0508080785199653
7.534,0.0558938129111955
7.536,0.0596998208139116
7.538,0.0620320635304039
7.54,0.0633321182552582
7.542,0.0640691976566383
7.544,0.0647125144027081
7.546,0.0657312811616315
7.548,0.0675947106015724
7.55,0.0707720153906946
7.552,0.075707707542456
7.554,0.0822781840120751
7.556,0.0897917266965311
7.558,0.0975319168380971
7.56,0.104782335679046
7.562,0.110850674447582
7.564,0.115599154048302
7.566,0.119444525062197
7.568,0.122827648056189
7.57,0.1261893835972
7.572,0.129961074483104
7.574,0.134355154823714
7.576,0.139365150040776
7.578,0.144975067786991
7.58,0.151180214652303
7.582,0.15823577278326
7.584,0.166656799883013
7.586,0.176969652591957
7.588,0.189615019787096
7.59,0.203063231787402
7.592,0.213945376139752
7.594,0.221822535704069
7.596,0.229271456416719
7.598,0.239
7.6,0.252792250946704
7.602,0.268737184831612
7.604,0.284
7.606,0.296733016402373
7.608,0.309037040410155
7.61,0.324
7.612,0.3435530184195
7.614,0.365
7.616,0.38471751296214
7.618,0.4
7.62,0.409951929731939
7.622,0.42
7.624,0.434849768110105
7.626,0.45
7.628,0.460110519769421
7.63,0.465692175534234
7.632,0.468718571414336
7.634,0.471163311529625
7.636,0.475
7.638,0.481537130450361
7.64,0.489422754525623
7.642,0.496639813375705
7.644,0.501171248150525
7.646,0.501
7.648,0.494957174166807
7.65,0.485266532264652
7.652,0.475
7.654,0.466376167431725
7.656,0.458200282028347
7.658,0.448424255610795
7.66,0.435
7.662,0.416718057527356
7.664,0.395723492566117
7.666,0.375
7.668,0.356409315249406
7.67,0.337325335881468
7.672,0.314
7.674,0.284481119319851
7.676,0.254
7.678,0.227801351245305
7.68,0.204
7.682,0.180063475698928
7.684,0.158
7.686,0.14025968249682
7.688,0.12651949230269
7.69,0.115763113410835
7.692,0.106974229814481
7.694,0.0991530840322818
7.696,0.0916807646677251
7.698,0.084319206409132
7.7,0.0768469024702515
7.702,0.0690487177674925
7.704,0.0608560663784479
7.706,0.0523469115418942
7.708,0.0436145721538932
7.71,0.0349589980668937
7.712,0.0268867700897307
7.714,0.0199134529858649
7.716,0.0145372349964884
7.718,0.0108566443506153
7.72,0.00857054926508249
7.722,0.00736044143445785
7.724,0.00690781255330947
7.726,0.00689415431620538
7.728,0.00700095841771364
7.73,0.00691791906911415
7.732,0.0065233883660587
7.734,0.00588437628857097
7.736,0.00507609533338665
7.738,0.00417375799724118
7.74,0.00325257677687024
7.742,0.00238776416900932
7.744,0
7.746,0
7.748,0
7.75,-0.00708460711772357
7.752,-0.00875867789606505
7.754,-0.0097707094803553
7.756,-0.0100503433721833
7.758,-0.0095272210731378
7.76,-0.00813098408480784
7.762,-0.00579127390878231
7.764,-0.00243773204665004
7.766,0.002
7.768,0.00759228072957896
7.77,0.0144094686404979
7.772,0.0225219222311678
7.774,0.032
7.776,0.0426795580987543
7.778,0.0534584432925861
7.78,0.063
7.782,0.0703086533523926
7.784,0.0757531513327301
7.786,0.0800433226368714
7.788,0.0838889959606751
7.79,0.088
7.792,0.0928813623772117
7.794,0.0982189064207034
7.796,0.103493654385375
7.798,0.108186628526127
7.8,0.11177885109786
7.802,0.113769020525728
7.804,0.114062387150768
7.806,0.112970753229892
7.808,0.11082359719027
7.81,0.107950397459071
7.812,0.104680632463465
7.814,0.101322448742521
7.816,0.0976933594089958
7.818,0.0931202441493368
7.82,0.0869086507618899
7.822,0.0783641270450015
7.824,0.0668822379065784
7.826,0.0539289417744214
7.828,0.0429403503473251
7.83,0.0351370667089276
7.832,0.02943416821815
7.834,0.0246658413406259
7.836,0.0201113077210971
7.838,0.0154948241834132
7.84,0.010559996907037
7.842,0.00505043207143152
7.844,-0.00126930799882813
7.846,-0.00815266964158817
7.848,-0.0148711078571161
7.85,-0.0206751215005672
7.852,-0.0248404509021935
7.854,-0.0272233903194679
7.856,-0.0282607879370846
7.858,-0.0284147334148342
7.86,-0.0281473164125075
7.862,-0.0279110227506538
7.864,-0.0279374499472761
7.866,-0.0282373072178306
7.868,-0.0288116999385322
7.87,-0.0296617334855958
7.872,-0.0307885132352366
7.874,-0.0321931445636694
7.876,-0.0338708461454447
7.878,-0.0356814425168278
7.88,-0.0373493640757983
7.882,-0.0385931545186718
7.884,-0.0391313575417635
7.886,-0.0386825168413888
7.888,-0.0369941879126011
7.89,-0.0344811976214325
7.892,-0.0322256442048932
7.894,-0.0313386376987318
7.896,-0.0329312881386968
7.898,-0.0381147055605367
7.9,-0.048
7.902,-0.0626784974835354
7.904,-0.0781623880003917
7.906,-0.0894440775305174
7.908,-0.0915159720538615
7.91,-0.0793704775503728
7.912,-0.048
7.914,0.00787945198275486
7.916,0.0946574592451774
7.918,0.219
7.92,0.381817728105234
7.922,0.561000000000002
7.924,0.731376282654542
7.926,0.878557782582414
7.928,0.990851141183019
7.93,1.05656299985575
7.932,1.064
7.934,1.00488859171392
7.936,0.884634459890632
7.938,0.712063098122032
7.94,0.496
7.942,0.254558087983522
7.944,0.043
7.946,-0.0893680600355242
7.948,-0.154215339725855
7.95,-0.178454949553258
7.952,-0.189
7.954,-0.207222774035877
7.956,-0.232332244580807
7.958,-0.257996557042236
7.96,-0.277883856827612
7.962,-0.285662289344385
7.964,-0.275
7.966,-0.243436904532212
7.968,-0.204
7.97,-0.169825574630218
7.972,-0.139
7.974,-0.107510796946915
7.976,-0.078
7.978,-0.0537956915439227
7.98,-0.0343156316944211
7.982,-0.018
7.984,-0.00368003270056166
7.986,0.00824880719840165
7.988,0.0170000000000001
7.99,0.0220597302817335
7.992,0.024004999718662
7.994,0.0236855142602354
7.996,0.0219509798559031
7.998,0.0196511024551151
8,0.0176355880073211
8.002,0.0167297140094783
8.004,0.0171969035512132
8.006,0.0187387253148218
8.008,0.0210323195301075
8.01,0.0237548264268736
8.012,0.0265833862349236
8.014,0.0291951391840608
8.016,0.0312672255040886
8.018,0.0324905874761291
8.02,0.0328736145616375
8.022,0.0327421434024014
8.024,0.0324358126915276
8.026,0.0322942611221227
8.028,0.0326571273872933
8.03,0.033864050180146
8.032,0.0362546681937876
8.034,0.0401436841055604
8.036,0.0452722722302258
8.038,0.0508080785199653
8.04,0.0558938129111955
8.042,0.0596998208139116
8.044,0.0620320635304039
8.046,0.0633321182552582
8.048,0.0640691976566383
8.05,0.0647125144027081
8.052,0.0657312811616315
8.054,0.0675947106015724
8.056,0.0707720153906946
8.058,0.075707707542456
8.06,0.0822781840120751
8.062,0.0897917266965311
8.064,0.0975319168380971
8.066,0.104782335679046
8.068,0.110850674447582
8.07,0.115599154048302
8.072,0.119444525062197
8.074,0.122827648056189
8.076,0.1261893835972
8.078,0.129961074483104
8.08,0.134355154823714
8.082,0.139365150040776
8.084,0.144975067786991
8.086,0.151180214652303
8.088,0.15823577278326
8.09,0.166656799883013
8.092,0.176969652591957
8.094,0.189615019787096
8.096,0.203063231787402
8.098,0.213945376139752
8.1,0.221822535704069
8.102,0.229271456416719
8.104,0.239
8.106,0.252792250946704
8.108,0.268737184831612
8.11,0.284
8.112,0.296733016402373
8.114,0.309037040410155
8.116,0.324
8.118,0.3435530184195
8.12,0.365
8.122,0.38471751296214
8.124,0.4
8.126,0.409951929731939
8.128,0.42
8.13,0.434849768110105
8.132,0.45
8.134,0.460110519769421
8.136,0.465692175534234
8.138,0.468718571414336
8.14,0.471163311529625
8.142,0.475
8.144,0.481537130450361
8.146,0.489422754525623
8.148,0.496639813375705
8.15,0.501171248150525
8.152,0.501
8.154,0.494957174166807
8.156,0.485266532264652
8.158,0.475
8.16,0.466376167431725
8.162,0.458200282028347
8.164,0.448424255610795
8.166,0.435
8.168,0.416718057527356
8.17,0.395723492566117
8.172,0.375
8.174,0.356409315249406
8.176,0.337325335881468
8.178,0.314
8.18,0.284481119319851
8.182,0.254
8.184,0.227801351245305
8.186,0.204
8.188,0.180063475698928
8.19,0.158
8.192,0.14025968249682
8.194,0.12651949230269
8.196,0.115763113410835
8.198,0.106974229814481
8.2,0.0991530840322818
8.202,0.0916807646677251
8.204,0.084319206409132
8.206,0.0768469024702515
8.208,0.0690487177674925
8.21,0.0608560663784479
8.212,0.0523469115418942
8.214,0.0436145721538932
8.216,0.0349589980668937
8.218,0.0268867700897307
8.22,0.0199134529858649
8.222,0.0145372349964884
8.224,0.0108566443506153
8.226,0.00857054926508249
8.228,0.00736044143445785
8.23,0.00690781255330947
8.232,0.00689415431620538
8.234,0.00700095841771364
8.236,0.00691791906911415
8.238,0.0065233883660587
8.24,0.00588437628857097
8.242,0.00507609533338665
8.244,0.00417375799724118
8.246,0.00325257677687024
8.248,0.00238776416900932
8.25,0
8.252,0
8.254,0
8.256,-0.00708460711772357
8.258,-0.00875867789606505
8.26,-0.0097707094803553
8.262,-0.0100503433721833
8.264,-0.0095272210731378
8.266,-0.00813098408480784
8.268,-0.00579127390878231
8.27,-0.00243773204665004
8.272,0.002
8.274,0.00759228072957896
8.276,0.0144094686404979
8.278,0.0225219222311678
8.28,0.032
8.282,0.0426795580987543
8.284,0.0534584432925861
8.286,0.063
8.288,0.0703086533523926
8.29,0.0757531513327301
8.292,0.0800433226368714
8.294,0.0838889959606751
8.296,0.088
8.298,0.0928813623772117
8.3,0.0982189064207034
8.302,0.103493654385375
8.304,0.108186628526127
8.306,0.11177885109786
8.308,0.113769020525728
8.31,0.114062387150768
8.312,0.112970753229892
8.314,0.11082359719027
8.316,0.107950397459071
8.318,0.104680632463465
8.32,0.101322448742521
8.322,0.0976933594089958
8.324,0.0931202441493368
8.326,0.0869086507618899
8.328,0.0783641270450015
8.33,0.0668822379065784
8.332,0.0539289417744214
8.334,0.0429403503473251
8.336,0.0351370667089276
8.338,0.02943416821815
8.34,0.0246658413406259
8.342,0.0201113077210971
8.344,0.0154948241834132
8.346,0.010559996907037
8.348,0.00505043207143152
8.35,-0.00126930799882813
8.352,-0.00815266964158817
8.354,-0.0148711078571161
8.356,-0.0206751215005672
8.358,-0.0248404509021935
8.36,-0.0272233903194679
8.362,-0.0282607879370846
8.364,-0.0284147334148342
8.366,-0.0281473164125075
8.368,-0.0279110227506538
8.37,-0.0279374499472761
8.372,-0.0282373072178306
8.374,-0.0288116999385322
8.376,-0.0296617334855958
8.378,-0.0307885132352366
8.38,-0.0321931445636694
8.382,-0.0338708461454447
8.384,-0.0356814425168278
8.386,-0.0373493640757983
8.388,-0.0385931545186718
8.39,-0.0391313575417635
8.392,-0.0386825168413888
8.394,-0.0369941879126011
8.396,-0.0344811976214325
8.398,-0.0322256442048932
8.4,-0.0313386376987318
8.402,-0.0329312881386968
8.404,-0.0381147055605367
8.406,-0.048
8.408,-0.0626784974835354
8.41,-0.0781623880003917
8.412,-0.0894440775305174
8.414,-0.0915159720538615
8.416,-0.0793704775503728
8.418,-0.048
8.42,0.00787945198275486
8.422,0.0946574592451774
8.424,0.219
8.426,0.381817728105234
8.428,0.561000000000002
8.43,0.731376282654542
8.432,0.878557782582414
8.434,0.990851141183019
8.436,1.05656299985575
8.438,1.064
8.44,1.00488859171392
8.442,0.884634459890632
8.444,0.712063098122032
8.446,0.496
8.448,0.254558087983522
8.45,0.043
8.452,-0.0893680600355242
8.454,-0.154215339725855
8.456,-0.178454949553258
8.458,-0.189
8.46,-0.207222774035877
8.462,-0.232332244580807
8.464,-0.257996557042236
8.466,-0.277883856827612
8.468,-0.285662289344385
8.47,-0.275
8.472,-0.243436904532212
8.474,-0.204
8.476,-0.169825574630218
8.478,-0.139
8.48,-0.107510796946915
8.482,-0.078
8.484,-0.0537956915439227
8.486,-0.0343156316944211
8.488,-0.018
8.49,-0.00368003270056166
8.492,0.00824880719840165
8.494,0.0170000000000001
8.496,0.0220597302817335
8.498,0.024004999718662
8.5,0.0236855142602354
8.502,0.0219509798559031
8.504,0.0196511024551151
8.506,0.0176355880073211
8.508,0.0167297140094783
8.51,0.0171969035512132
8.512,0.0187387253148218
8.514,0.0210323195301075
8.516,0.0237548264268736
8.518,0.0265833862349236
8.52,0.0291951391840608
8.522,0.0312672255040886
8.524,0.0324905874761291
8.526,0.0328736145616375
8.528,0.0327421434024014
8.53,0.0324358126915276
8.532,0.0322942611221227
8.534,0.0326571273872933
8.536,0.033864050180146
8.538,0.0362546681937876
8.54,0.0401436841055604
8.542,0.0452722722302258
8.544,0.0508080785199653
8.546,0.0558938129111955
8.548,0.0596998208139116
8.55,0.0620320635304039
8.552,0.0633321182552582
8.554,0.0640691976566383
8.556,0.0647125144027081
8.558,0.0657312811616315
8.56,0.0675947106015724
8.562,0.0707720153906946
8.564,0.075707707542456
8.566,0.0822781840120751
8.568,0.0897917266965311
8.57,0.0975319168380971
8.572,0.104782335679046
8.574,0.110850674447582
8.576,0.115599154048302
8.578,0.119444525062197
8.58,0.122827648056189
8.582,0.1261893835972
8.584,0.129961074483104
8.586,0.134355154823714
8.588,0.139365150040776
8.59,0.144975067786991
8.592,0.151180214652303
8.594,0.15823577278326
8.596,0.166656799883013
8.598,0.176969652591957
8.6,0.189615019787096
8.602,0.203063231787402
8.604,0.213945376139752
8.606,0.221822535704069
8.608,0.229271456416719
8.61,0.239
8.612,0.252792250946704
8.614,0.268737184831612
8.616,0.284
8.618,0.296733016402373
8.62,0.309037040410155
8.622,0.324
8.624,0.3435530184195
8.626,0.365
8.628,0.38471751296214
8.63,0.4
8.632,0.409951929731939
8.634,0.42
8.636,0.434849768110105
8.638,0.45
8.64,0.460110519769421
8.642,0.465692175534234
8.644,0.468718571414336
8.646,0.471163311529625
8.648,0.475
8.65,0.481537130450361
8.652,0.489422754525623
8.654,0.496639813375705
8.656,0.501171248150525
8.658,0.501
8.66,0.494957174166807
8.662,0.485266532264652
8.664,0.475
8.666,0.466376167431725
8.668,0.458200282028347
8.67,0.448424255610795
8.672,0.435
8.674,0.416718057527356
8.676,0.395723492566117
8.678,0.375
8.68,0.356409315249406
8.682,0.337325335881468
8.684,0.314
8.686,0.284481119319851
8.688,0.254
8.69,0.227801351245305
8.692,0.204
8.694,0.180063475698928
8.696,0.158
8.698,0.14025968249682
8.7,0.12651949230269
8.702,0.115763113410835
8.704,0.106974229814481
8.706,0.0991530840322818
8.708,0.0916807646677251
8.71,0.084319206409132
8.712,0.0768469024702515
8.714,0.0690487177674925
8.716,0.0608560663784479
8.718,0.0523469115418942
8.72,0.0436145721538932
8.722,0.0349589980668937
8.724,0.0268867700897307
8.726,0.0199134529858649
8.728,0.0145372349964884
8.73,0.0108566443506153
8.732,0.00857054926508249
8.734,0.00736044143445785
8.736,0.00690781255330947
8.738,0.00689415431620538
8.74,0.00700095841771364
8.742,0.00691791906911415
8.744,0.0065233883660587
8.746,0.00588437628857097
8.748,0.00507609533338665
8.75,0.00417375799724118
8.752,0.00325257677687024
8.754,0.00238776416900932
8.756,0
8.758,0
8.76,-0.00708460711772357
8.762,-0.00875867789606505
8.764,-0.0097707094803553
8.766,-0.0100503433721833
8.768,-0.0095272210731378
8.77,-0.00813098408480784
8.772,-0.00579127390878231
8.774,-0.00243773204665004
8.776,0.002
8.778,0.00759228072957896
8.78,0.0144094686404979
8.782,0.0225219222311678
8.784,0.032
8.786,0.0426795580987543
8.788,0.0534584432925861
8.79,0.063
8.792,0.0703086533523926
8.794,0.0757531513327301
8.796,0.0800433226368714
8.798,0.0838889959606751
8.8,0.088
8.802,0.0928813623772117
8.804,0.0982189064207034
8.806,0.103493654385375
8.808,0.108186628526127
8.81,0.11177885109786
8.812,0.113769020525728
8.814,0.114062387150768
8.816,0.112970753229892
8.818,0.11082359719027
8.82,0.107950397459071
8.822,0.104680632463465
8.824,0.101322448742521
8.826,0.0976933594089958
8.828,0.0931202441493368
8.83,0.0869086507618899
8.832,0.0783641270450015
8.834,0.0668822379065784
8.836,0.0539289417744214
8.838,0.0429403503473251
8.84,0.0351370667089276
8.842,0.02943416821815
8.844,0.0246658413406259
8.846,0.0201113077210971
8.848,0.0154948241834132
8.85,0.010559996907037
8.852,0.00505043207143152
8.854,-0.00126930799882813
8.856,-0.00815266964158817
8.858,-0.0148711078571161
8.86,-0.0206751215005672
8.862,-0.0248404509021935
8.864,-0.0272233903194679
8.866,-0.0282607879370846
8.868,-0.0284147334148342
8.87,-0.0281473164125075
8.872,-0.0279110227506538
8.874,-0.0279374499472761
8.876,-0.0282373072178306
8.878,-0.0288116999385322
8.88,-0.0296617334855958
8.882,-0.0307885132352366
8.884,-0.0321931445636694
8.886,-0.0338708461454447
8.888,-0.0356814425168278
8.89,-0.0373493640757983
8.892,-0.0385931545186718
8.894,-0.0391313575417635
8.896,-0.0386825168413888
8.898,-0.0369941879126011
8.9,-0.0344811976214325
8.902,-0.0322256442048932
8.904,-0.0313386376987318
8.906,-0.0329312881386968
8.908,-0.0381147055605367
8.91,-0.048
8.912,-0.0626784974835354
8.914,-0.0781623880003917
8.916,-0.0894440775305174
8.918,-0.0915159720538615
8.92,-0.0793704775503728
8.922,-0.048
8.924,0.00787945198275486
8.926,0.0946574592451774
8.928,0.219
8.93,0.381817728105234
8.932,0.561000000000002
8.934,0.731376282654542
8.936,0.878557782582414
8.938,0.990851141183019
8.94,1.05656299985575
8.942,1.064
8.944,1.00488859171392
8.946,0.884634459890632
8.948,0.712063098122032
8.95,0.496
8.952,0.254558087983522
8.954,0.043
8.956,-0.0893680600355242
8.958,-0.154215339725855
8.96,-0.178454949553258
8.962,-0.189
8.964,-0.207222774035877
8.966,-0.232332244580807
8.968,-0.257996557042236
8.97,-0.277883856827612
8.972,-0.285662289344385
8.974,-0.275
8.976,-0.243436904532212
8.978,-0.204
8.98,-0.169825574630218
8.982,-0.139
8.984,-0.107510796946915
8.986,-0.078
8.988,-0.0537956915439227
8.99,-0.0343156316944211
8.992,-0.018
8.994,-0.00368003270056166
8.996,0.00824880719840165
8.998,0.0170000000000001
9,0.0220597302817335
9.002,0.024004999718662
9.004,0.0236855142602354
9.006,0.0219509798559031
9.008,0.0196511024551151
9.01,0.0176355880073211
9.012,0.0167297140094783
9.014,0.0171969035512132
9.016,0.0187387253148218
9.018,0.0210323195301075
9.02,0.0237548264268736
9.022,0.0265833862349236
9.024,0.0291951391840608
9.026,0.0312672255040886
9.028,0.0324905874761291
9.03,0.0328736145616375
9.032,0.0327421434024014
9.034,0.0324358126915276
9.036,0.0322942611221227
9.038,0.0326571273872933
9.04,0.033864050180146
9.042,0.0362546681937876
9.044,0.0401436841055604
9.046,0.0452722722302258
9.048,0.0508080785199653
9.05,0.0558938129111955
9.052,0.0596998208139116
9.054,0.0620320635304039
9.056,0.0633321182552582
9.058,0.0640691976566383
9.06,0.0647125144027081
9.062,0.0657312811616315
9.064,0.0675947106015724
9.066,0.0707720153906946
9.068,0.075707707542456
9.07,0.0822781840120751
9.072,0.0897917266965311
9.074,0.0975319168380971
9.076,0.104782335679046
9.078,0.110850674447582
9.08,0.115599154048302
9.082,0.119444525062197
9.084,0.122827648056189
9.086,0.1261893835972
9.088,0.129961074483104
9.09,0.134355154823714
9.092,0.139365150040776
9.094,0.144975067786991
9.096,0.151180214652303
9.098,0.15823577278326
9.1,0.166656799883013
9.102,0.176969652591957
9.104,0.189615019787096
9.106,0.203063231787402
9.108,0.213945376139752
9.11,0.221822535704069
9.112,0.229271456416719
9.114,0.239
9.116,0.252792250946704
9.118,0.268737184831612
9.12,0.284
9.122,0.296733016402373
9.124,0.309037040410155
9.126,0.324
9.128,0.3435530184195
9.13,0.365
9.132,0.38471751296214
9.134,0.4
9.136,0.409951929731939
9.138,0.42
9.14,0.434849768110105
9.142,0.45
9.144,0.460110519769421
9.146,0.465692175534234
9.148,0.468718571414336
9.15,0.471163311529625
9.152,0.475
9.154,0.481537130450361
9.156,0.489422754525623
9.158,0.496639813375705
9.16,0.501171248150525
9.162,0.501
9.164,0.494957174166807
9.166,0.485266532264652
9.168,0.475
9.17,0.466376167431725
9.172,0.458200282028347
9.174,0.448424255610795
9.176,0.435
9.178,0.416718057527356
9.18,0.395723492566117
9.182,0.375
9.184,0.356409315249406
9.186,0.337325335881468
9.188,0.314
9.19,0.284481119319851
9.192,0.254
9.194,0.227801351245305
9.196,0.204
9.198,0.180063475698928
9.2,0.158
9.202,0.14025968249682
9.204,0.12651949230269
9.206,0.115763113410835
9.208,0.106974229814481
9.21,0.0991530840322818
9.212,0.0916807646677251
9.214,0.084319206409132
9.216,0.0768469024702515
9.218,0.0690487177674925
9.22,0.0608560663784479
9.222,0.0523469115418942
9.224,0.0436145721538932
9.226,0.0349589980668937
9.228,0.0268867700897307
9.23,0.0199134529858649
9.232,0.0145372349964884
9.234,0.0108566443506153
9.236,0.00857054926508249
9.238,0.00736044143445785
9.24,0.00690781255330947
9.242,0.00689415431620538
9.244,0.00700095841771364
9.246,0.00691791906911415
9.248,0.0065233883660587
9.25,0.00588437628857097
9.252,0.00507609533338665
9.254,0.00417375799724118
9.256,0.00325257677687024
9.258,0.00238776416900932
9.26,0
9.262,0
9.264,-0.00708460711772357
9.266,-0.00875867789606505
9.268,-0.0097707094803553
9.27,-0.0100503433721833
9.272,-0.0095272210731378
9.274,-0.00813098408480784
9.276,-0.00579127390878231
9.278,-0.00243773204665004
9.28,0.002
9.282,0.00759228072957896
9.284,0.0144094686404979
9.286,0.0225219222311678
9.288,0.032
9.29,0.0426795580987543
9.292,0.0534584432925861
9.294,0.063
9.296,0.0703086533523926
9.298,0.0757531513327301
9.3,0.0800433226368714
9.302,0.0838889959606751
9.304,0.088
9.306,0.0928813623772117
9.308,0.0982189064207034
9.31,0.103493654385375
9.312,0.108186628526127
9.314,0.11177885109786
9.316,0.113769020525728
9.318,0.114062387150768
9.32,0.112970753229892
9.322,0.11082359719027
9.324,0.107950397459071
9.326,0.104680632463465
9.328,0.101322448742521
9.33,0.0976933594089958
9.332,0.0931202441493368
9.334,0.0869086507618899
9.336,0.0783641270450015
9.338,0.0668822379065784
9.34,0.0539289417744214
9.342,0.0429403503473251
9.344,0.0351370667089276
9.346,0.02943416821815
9.348,0.0246658413406259
9.35,0.0201113077210971
9.352,0.0154948241834132
9.354,0.010559996907037
9.356,0.00505043207143152
9.358,-0.00126930799882813
9.36,-0.00815266964158817
9.362,-0.0148711078571161
9.364,-0.0206751215005672
9.366,-0.0248404509021935
9.368,-0.0272233903194679
9.37,-0.0282607879370846
9.372,-0.0284147334148342
9.374,-0.0281473164125075
9.376,-0.0279110227506538
9.378,-0.0279374499472761
9.38,-0.0282373072178306
9.382,-0.0288116999385322
9.384,-0.0296617334855958
9.386,-0.0307885132352366
9.388,-0.0321931445636694
9.39,-0.0338708461454447
9.392,-0.0356814425168278
9.394,-0.0373493640757983
9.396,-0.0385931545186718
9.398,-0.0391313575417635
9.4,-0.0386825168413888
9.402,-0.0369941879126011
9.404,-0.0344811976214325
9.406,-0.0322256442048932
9.408,-0.0313386376987318
9.41,-0.0329312881386968
9.412,-0.0381147055605367
9.414,-0.048
9.416,-0.0626784974835354
9.418,-0.0781623880003917
9.42,-0.0894440775305174
9.422,-0.0915159720538615
9.424,-0.0793704775503728
9.426,-0.048
9.428,0.00787945198275486
9.43,0.0946574592451774
9.432,0.219
9.434,0.381817728105234
9.436,0.561000000000002
9.438,0.731376282654542
9.44,0.878557782582414
9.442,0.990851141183019
9.444,1.05656299985575
9.446,1.064
9.448,1.00488859171392
9.45,0.884634459890632
9.452,0.712063098122032
9.454,0.496
9.456,0.254558087983522
9.458,0.043
9.46,-0.0893680600355242
9.462,-0.154215339725855
9.464,-0.178454949553258
9.466,-0.189
9.468,-0.207222774035877
9.47,-0.232332244580807
9.472,-0.257996557042236
9.474,-0.277883856827612
9.476,-0.285662289344385
9.478,-0.275
9.48,-0.243436904532212
9.482,-0.204
9.484,-0.169825574630218
9.486,-0.139
9.488,-0.107510796946915
9.49,-0.078
9.492,-0.0537956915439227
9.494,-0.0343156316944211
9.496,-0.018
9.498,-0.00368003270056166
9.5,0.00824880719840165
9.502,0.0170000000000001
9.504,0.0220597302817335
9.506,0.024004999718662
9.508,0.0236855142602354
9.51,0.0219509798559031
9.512,0.0196511024551151
9.514,0.0176355880073211
9.516,0.0167297140094783
9.518,0.0171969035512132
9.52,0.0187387253148218
9.522,0.0210323195301075
9.524,0.0237548264268736
9.526,0.0265833862349236
9.528,0.0291951391840608
9.53,0.0312672255040886
9.532,0.0324905874761291
9.534,0.0328736145616375
9.536,0.0327421434024014
9.538,0.0324358126915276
9.54,0.0322942611221227
9.542,0.0326571273872933
9.544,0.033864050180146
9.546,0.0362546681937876
9.548,0.0401436841055604
9.55,0.0452722722302258
9.552,0.0508080785199653
9.554,0.0558938129111955
9.556,0.0596998208139116
9.558,0.0620320635304039
9.56,0.0633321182552582
9.562,0.0640691976566383
9.564,0.0647125144027081
9.566,0.0657312811616315
9.568,0.0675947106015724
9.57,0.0707720153906946
9.572,0.075707707542456
9.574,0.0822781840120751
9.576,0.0897917266965311
9.578,0.0975319168380971
9.58,0.104782335679046
9.582,0.110850674447582
9.584,0.115599154048302
9.586,0.119444525062197
9.588,0.122827648056189
9.59,0.1261893835972
9.592,0.129961074483104
9.594,0.134355154823714
9.596,0.139365150040776
9.598,0.144975067786991
9.6,0.151180214652303
9.602,0.15823577278326
9.604,0.166656799883013
9.606,0.176969652591957
9.608,0.189615019787096
9.61,0.203063231787402
9.612,0.213945376139752
9.614,0.221822535704069
9.616,0.229271456416719
9.618,0.239
9.62,0.252792250946704
9.622,0.268737184831612
9.624,0.284
9.626,0.296733016402373
9.628,0.309037040410155
9.63,0.324
9.632,0.3435530184195
9.634,0.365
9.636,0.38471751296214
9.638,0.4
9.64,0.409951929731939
9.642,0.42
9.644,0.434849768110105
9.646,0.45
9.648,0.460110519769421
9.65,0.465692175534234
9.652,0.468718571414336
9.654,0.471163311529625
9.656,0.475
9.658,0.481537130450361
9.66,0.489422754525623
9.662,0.496639813375705
9.664,0.501171248150525
9.666,0.501
9.668,0.494957174166807
9.67,0.485266532264652
9.672,0.475
9.674,0.466376167431725
9.676,0.458200282028347
9.678,0.448424255610795
9.68,0.435
9.682,0.416718057527356
9.684,0.395723492566117
9.686,0.375
9.688,0.356409315249406
9.69,0.337325335881468
9.692,0.314
9.694,0.284481119319851
9.696,0.254
9.698,0.227801351245305
9.7,0.204
9.702,0.180063475698928
9.704,0.158
9.706,0.14025968249682
9.708,0.12651949230269
9.71,0.115763113410835
9.712,0.106974229814481
9.714,0.0991530840322818
9.716,0.0916807646677251
9.718,0.084319206409132
9.72,0.0768469024702515
9.722,0.0690487177674925
9.724,0.0608560663784479
9.726,0.0523469115418942
9.728,0.0436145721538932
9.73,0.0349589980668937
9.732,0.0268867700897307
9.734,0.0199134529858649
9.736,0.0145372349964884
9.738,0.0108566443506153
9.74,0.00857054926508249
9.742,0.00736044143445785
9.744,0.00690781255330947
9.746,0.00689415431620538
9.748,0.00700095841771364
9.75,0.00691791906911415
9.752,0.0065233883660587
9.754,0.00588437628857097
9.756,0.00507609533338665
9.758,0.00417375799724118
9.76,0.00325257677687024
9.762,0.00238776416900932
9.764,0
9.766,-0.00708460711772357
9.768,-0.00875867789606505
9.77,-0.0097707094803553
9.772,-0.0100503433721833
9.774,-0.0095272210731378
9.776,-0.00813098408480784
9.778,-0.00579127390878231
9.78,-0.00243773204665004
9.782,0.002
9.784,0.00759228072957896
9.786,0.0144094686404979
9.788,0.0225219222311678
9.79,0.032
9.792,0.0426795580987543
9.794,0.0534584432925861
9.796,0.063
9.798,0.0703086533523926
9.8,0.0757531513327301
9.802,0.0800433226368714
9.804,0.0838889959606751
9.806,0.088
9.808,0.0928813623772117
9.81,0.0982189064207034
9.812,0.103493654385375
9.814,0.108186628526127
9.816,0.11177885109786
9.818,0.113769020525728
9.82,0.114062387150768
9.822,0.112970753229892
9.824,0.11082359719027
9.826,0.107950397459071
9.828,0.104680632463465
9.83,0.101322448742521
9.832,0.0976933594089958
9.834,0.0931202441493368
9.836,0.0869086507618899
9.838,0.0783641270450015
9.84,0.0668822379065784
9.842,0.0539289417744214
9.844,0.0429403503473251
9.846,0.0351370667089276
9.848,0.02943416821815
9.85,0.0246658413406259
9.852,0.0201113077210971
9.854,0.0154948241834132
9.856,0.010559996907037
9.858,0.00505043207143152
9.86,-0.00126930799882813
9.862,-0.00815266964158817
9.864,-0.0148711078571161
9.866,-0.0206751215005672
9.868,-0.0248404509021935
9.87,-0.0272233903194679
9.872,-0.0282607879370846
9.874,-0.0284147334148342
9.876,-0.0281473164125075
9.878,-0.0279110227506538
9.88,-0.0279374499472761
9.882,-0.0282373072178306
9.884,-0.0288116999385322
9.886,-0.0296617334855958
9.888,-0.0307885132352366
9.89,-0.0321931445636694
9.892,-0.0338708461454447
9.894,-0.0356814425168278
9.896,-0.0373493640757983
9.898,-0.0385931545186718
9.9,-0.0391313575417635
9.902,-0.0386825168413888
9.904,-0.0369941879126011
9.906,-0.0344811976214325
9.908,-0.0322256442048932
9.91,-0.0313386376987318
9.912,-0.0329312881386968
9.914,-0.0381147055605367
9.916,-0.048
9.918,-0.0626784974835354
9.92,-0.0781623880003917
9.922,-0.0894440775305174
9.924,-0.0915159720538615
9.926,-0.0793704775503728
9.928,-0.048
9.93,0.00787945198275486
9.932,0.0946574592451774
9.934,0.219
9.936,0.381817728105234
9.938,0.561000000000002
9.94,0.731376282654542
9.942,0.878557782582414
9.944,0.990851141183019
9.946,1.05656299985575
9.948,1.064
9.95,1.00488859171392
9.952,0.884634459890632
9.954,0.712063098122032
9.956,0.496
9.958,0.254558087983522
9.96,0.043
9.962,-0.0893680600355242
9.964,-0.154215339725855
9.966,-0.178454949553258
9.968,-0.189
9.97,-0.207222774035877
9.972,-0.232332244580807
9.974,-0.257996557042236
9.976,-0.277883856827612
9.978,-0.285662289344385
9.98,-0.275
9.982,-0.243436904532212
9.984,-0.204
9.986,-0.169825574630218
9.988,-0.139
9.99,-0.107510796946915
9.992,-0.078
9.994,-0.0537956915439227
9.996,-0.0343156316944211
9.998,-0.018
10,-0.00368003270056166
10.002,0.00824880719840165
10.004,0.0170000000000001
10.006,0.0220597302817335
10.008,0.024004999718662
10.01,0.0236855142602354
10.012,0.0219509798559031
10.014,0.0196511024551151
10.016,0.0176355880073211
10.018,0.0167297140094783
10.02,0.0171969035512132
10.022,0.0187387253148218
10.024,0.0210323195301075
10.026,0.0237548264268736
10.028,0.0265833862349236
10.03,0.0291951391840608
10.032,0.0312672255040886
10.034,0.0324905874761291
10.036,0.0328736145616375
10.038,0.0327421434024014
10.04,0.0324358126915276
10.042,0.0322942611221227
10.044,0.0326571273872933
10.046,0.033864050180146
10.048,0.0362546681937876
10.05,0.0401436841055604
10.052,0.0452722722302258
10.054,0.0508080785199653
10.056,0.0558938129111955
10.058,0.0596998208139116
10.06,0.0620320635304039
10.062,0.0633321182552582
10.064,0.0640691976566383
10.066,0.0647125144027081
10.068,0.0657312811616315
10.07,0.0675947106015724
10.072,0.0707720153906946
10.074,0.075707707542456
10.076,0.0822781840120751
10.078,0.0897917266965311
10.08,0.0975319168380971
10.082,0.104782335679046
10.084,0.110850674447582
10.086,0.115599154048302
10.088,0.119444525062197
10.09,0.122827648056189
10.092,0.1261893835972
10.094,0.129961074483104
10.096,0.134355154823714
10.098,0.139365150040776
10.1,0.144975067786991
10.102,0.151180214652303
10.104,0.15823577278326
10.106,0.166656799883013
10.108,0.176969652591957
10.11,0.189615019787096
10.112,0.203063231787402
10.114,0.213945376139752
10.116,0.221822535704069
10.118,0.229271456416719
10.12,0.239
10.122,0.252792250946704
10.124,0.268737184831612
10.126,0.284
10.128,0.296733016402373
10.13,0.309037040410155
10.132,0.324
10.134,0.3435530184195
10.136,0.365
10.138,0.38471751296214
10.14,0.4
10.142,0.409951929731939
10.144,0.42
10.146,0.434849768110105
10.148,0.45
10.15,0.460110519769421
10.152,0.465692175534234
10.154,0.468718571414336
10.156,0.471163311529625
10.158,0.475
10.16,0.481537130450361
10.162,0.489422754525623
10.164,0.496639813375705
10.166,0.501171248150525
10.168,0.501
10.17,0.494957174166807
10.172,0.485266532264652
10.174,0.475
10.176,0.466376167431725
10.178,0.458200282028347
10.18,0.448424255610795
10.182,0.435
10.184,0.416718057527356
10.186,0.395723492566117
10.188,0.375
10.19,0.356409315249406
10.192,0.337325335881468
10.194,0.314
10.196,0.284481119319851
10.198,0.254
10.2,0.227801351245305
10.202,0.204
10.204,0.180063475698928
10.206,0.158
10.208,0.14025968249682
10.21,0.12651949230269
10.212,0.115763113410835
10.214,0.106974229814481
10.216,0.0991530840322818
10.218,0.0916807646677251
10.22,0.084319206409132
10.222,0.0768469024702515
10.224,0.0690487177674925
10.226,0.0608560663784479
10.228,0.0523469115418942
10.23,0.0436145721538932
10.232,0.0349589980668937
10.234,0.0268867700897307
10.236,0.0199134529858649
10.238,0.0145372349964884
10.24,0.0108566443506153
10.242,0.00857054926508249
10.244,0.00736044143445785
10.246,0.00690781255330947
10.248,0.00689415431620538
10.25,0.00700095841771364
10.252,0.00691791906911415
10.254,0.0065233883660587
10.256,0.00588437628857097
10.258,0.00507609533338665
10.26,0.00417375799724118
10.262,0.00325257677687024
10.264,0.00238776416900932
10.266,0
10.268,-0.00708460711772357
10.27,-0.00875867789606505
10.272,-0.0097707094803553
10.274,-0.0100503433721833
10.276,-0.0095272210731378
10.278,-0.00813098408480784
10.28,-0.00579127390878231
10.282,-0.00243773204665004
10.284,0.002
10.286,0.00759228072957896
10.288,0.0144094686404979
10.29,0.0225219222311678
10.292,0.032
10.294,0.0426795580987543
10.296,0.0534584432925861
10.298,0.063
10.3,0.0703086533523926
10.302,0.0757531513327301
10.304,0.0800433226368714
10.306,0.0838889959606751
10.308,0.088
10.31,0.0928813623772117
10.312,0.0982189064207034
10.314,0.103493654385375
10.316,0.108186628526127
10.318,0.11177885109786
10.32,0.113769020525728
10.322,0.114062387150768
10.324,0.112970753229892
10.326,0.11082359719027
10.328,0.107950397459071
10.33,0.104680632463465
10.332,0.101322448742521
10.334,0.0976933594089958
10.336,0.0931202441493368
10.338,0.0869086507618899
10.34,0.0783641270450015
10.342,0.0668822379065784
10.344,0.0539289417744214
10.346,0.0429403503473251
10.348,0.0351370667089276
10.35,0.02943416821815
10.352,0.0246658413406259
10.354,0.0201113077210971
10.356,0.0154948241834132
10.358,0.010559996907037
10.36,0.00505043207143152
10.362,-0.00126930799882813
10.364,-0.00815266964158817
10.366,-0.0148711078571161
10.368,-0.0206751215005672
10.37,-0.0248404509021935
10.372,-0.0272233903194679
10.374,-0.0282607879370846
10.376,-0.0284147334148342
10.378,-0.0281473164125075
10.38,-0.0279110227506538
10.382,-0.0279374499472761
10.384,-0.0282373072178306
10.386,-0.0288116999385322
10.388,-0.0296617334855958
10.39,-0.0307885132352366
10.392,-0.0321931445636694
10.394,-0.0338708461454447
10.396,-0.0356814425168278
10.398,-0.0373493640757983
10.4,-0.0385931545186718
10.402,-0.0391313575417635
10.404,-0.0386825168413888
10.406,-0.0369941879126011
10.408,-0.0344811976214325
10.41,-0.0322256442048932
10.412,-0.0313386376987318
10.414,-0.0329312881386968
10.416,-0.0381147055605367
10.418,-0.048
10.42,-0.0626784974835354
10.422,-0.0781623880003917
10.424,-0.0894440775305174
10.426,-0.0915159720538615
10.428,-0.0793704775503728
10.43,-0.048
10.432,0.00787945198275486
10.434,0.0946574592451774
10.436,0.219
10.438,0.381817728105234
10.44,0.561000000000002
10.442,0.731376282654542
10.444,0.878557782582414
10.446,0.990851141183019
10.448,1.05656299985575
10.45,1.064
10.452,1.00488859171392
10.454,0.884634459890632
10.456,0.712063098122032
10.458,0.496
10.46,0.254558087983522
10.462,0.043
10.464,-0.0893680600355242
10.466,-0.154215339725855
10.468,-0.178454949553258
10.47,-0.189
10.472,-0.207222774035877
10.474,-0.232332244580807
10.476,-0.257996557042236
10.478,-0.277883856827612
10.48,-0.285662289344385
10.482,-0.275
10.484,-0.243436904532212
10.486,-0.204
10.488,-0.169825574630218
10.49,-0.139
10.492,-0.107510796946915
10.494,-0.078
10.496,-0.0537956915439227
10.498,-0.0343156316944211
10.5,-0.018
10.502,-0.00368003270056166
10.504,0.00824880719840165
10.506,0.0170000000000001
10.508,0.0220597302817335
10.51,0.024004999718662
10.512,0.0236855142602354
10.514,0.0219509798559031
10.516,0.0196511024551151
10.518,0.0176355880073211
10.52,0.0167297140094783
10.522,0.0171969035512132
10.524,0.0187387253148218
10.526,0.0210323195301075
10.528,0.0237548264268736
10.53,0.0265833862349236
10.532,0.0291951391840608
10.534,0.0312672255040886
10.536,0.0324905874761291
10.538,0.0328736145616375
10.54,0.0327421434024014
10.542,0.0324358126915276
10.544,0.0322942611221227
10.546,0.0326571273872933
10.548,0.033864050180146
10.55,0.0362546681937876
10.552,0.0401436841055604
10.554,0.0452722722302258
10.556,0.0508080785199653
10.558,0.0558938129111955
10.56,0.0596998208139116
10.562,0.0620320635304039
10.564,0.0633321182552582
10.566,0.0640691976566383
10.568,0.0647125144027081
10.57,0.0657312811616315
10.572,0.0675947106015724
10.574,0.0707720153906946
10.576,0.075707707542456
10.578,0.0822781840120751
10.58,0.0897917266965311
10.582,0.0975319168380971
10.584,0.104782335679046
