0.002,0
0.004,0
0.006,0
0.008,0
0.01,0
0.012,0
0.014,0
0.016,0
0.018,0
0.02,0
0.022,0
0.024,0
0.026,0
0.028,0
0.03,0
0.032,0
0.034,0
0.036,0
0.038,0
0.04,0
0.042,0
0.044,0
0.046,0
0.048,0
0.05,0
0.052,0
0.054,0
0.056,0
0.058,0
0.06,0
0.062,0
0.064,0
0.066,0
0.068,0
0.07,0
0.072,0
0.074,0
0.076,0
0.078,0
0.08,0
0.082,0
0.084,0
0.086,0
0.088,0
0.09,0
0.092,0
0.094,0
0.096,0
0.098,0
0.1,0
0.102,0
0.104,0
0.106,0
0.108,0
0.11,0
0.112,0
0.114,0
0.116,0
0.118,0
0.12,0
0.122,0
0.124,0
0.126,0
0.128,0
0.13,0
0.132,0
0.134,0
0.136,0
0.138,0
0.14,0
0.142,0
0.144,0
0.146,0
0.148,0
0.15,0
0.152,0
0.154,0
0.156,0
0.158,0
0.16,0
0.162,0
0.164,0
0.166,0
0.168,0
0.17,0
0.172,0
0.174,0
0.176,0
0.178,0
0.18,0
0.182,0
0.184,0
0.186,0
0.188,0
0.19,0
0.192,0
0.194,0
0.196,0
0.198,0
0.2,0
0.202,0
0.204,0
0.206,0
0.208,0
0.21,0
0.212,0
0.214,0
0.216,0
0.218,0
0.22,0
0.222,0
0.224,0
0.226,0
0.228,0
0.23,0
0.232,0
0.234,0
0.236,0
0.238,0
0.24,0
0.242,0
0.244,0
0.246,0
0.248,0
0.25,0
0.252,0
0.254,0
0.256,0
0.258,0
0.26,0
0.262,0
0.264,0
0.266,0
0.268,0
0.27,0
0.272,0
0.274,0
0.276,0
0.278,0
0.28,0
0.282,0
0.284,0
0.286,0
0.288,0
0.29,0
0.292,0
0.294,0
0.296,0
0.298,0
0.3,0
0.302,0
0.304,0
0.306,0
0.308,0
0.31,0
0.312,0
0.314,0
0.316,0
0.318,0
0.32,0
0.322,0
0.324,0
0.326,0
0.328,0
0.33,0
0.332,0
0.334,0
0.336,0
0.338,0
0.34,0
0.342,0
0.344,0
0.346,0
0.348,0
0.35,0
0.352,0
0.354,0
0.356,0
0.358,0
0.36,0
0.362,0
0.364,0
0.366,0
0.368,0
0.37,0
0.372,0
0.374,0
0.376,0
0.378,0
0.38,0
0.382,0
0.384,0
0.386,0
0.388,0
0.39,0
0.392,0
0.394,0
0.396,0
0.398,0
0.4,0
0.402,0
0.404,0
0.406,0
0.408,0
0.41,0
0.412,0
0.414,0
0.416,0
0.418,0
0.42,0
0.422,0
0.424,0
0.426,0
0.428,0
0.43,0
0.432,0
0.434,0
0.436,0
0.438,0
0.44,0
0.442,0
0.444,0
0.446,0
0.448,0
0.45,0
0.452,0
0.454,0
0.456,0
0.458,0
0.46,0
0.462,0
0.464,0
0.466,0
0.468,0
0.47,0
0.472,0
0.474,0
0.476,0
0.478,0
0.48,0
0.482,0
0.484,0
0.486,0
0.488,0
0.49,0
0.492,0
0.494,0
0.496,0
0.498,0
0.5,0
0.502,0
0.504,0
0.506,0
0.508,0
0.51,0
0.512,0
0.514,0
0.516,0
0.518,0
0.52,0
0.522,0
0.524,0
0.526,0
0.528,0
0.53,0
0.532,0
0.534,0
0.536,0
0.538,0
0.54,0
0.542,0
0.544,0
0.546,0
0.548,0
0.55,0
0.552,0
0.554,0
0.556,0
0.558,0
0.56,0
0.562,0
0.564,0
0.566,0
0.568,0
0.57,0
0.572,0
0.574,0
0.576,0
0.578,0
0.58,0
0.582,0
0.584,0
0.586,0
0.588,0
0.59,0
0.592,0
0.594,0
0.596,0
0.598,0
0.6,0
0.602,0
0.604,0
0.606,0
0.608,0
0.61,0
0.612,0
0.614,0
0.616,0
0.618,0
0.62,0
0.622,0
0.624,0
0.626,0
0.628,0
0.63,0
0.632,0
0.634,0
0.636,0
0.638,0
0.64,0
0.642,0
0.644,0
0.646,0
0.648,0
0.65,0
0.652,0
0.654,0
0.656,0
0.658,0
0.66,0
0.662,0
0.664,0
0.666,0
0.668,0
0.67,0
0.672,0
0.674,0
0.676,0
0.678,0
0.68,0
0.682,0
0.684,0
0.686,0
0.688,0
0.69,0
0.692,0
0.694,0
0.696,0
0.698,0
0.7,0
0.702,0
0.704,0
0.706,0
0.708,0
0.71,0
0.712,0
0.714,0
0.716,0
0.718,0
0.72,0
0.722,0
0.724,0
0.726,0
0.728,0
0.73,0
0.732,0
0.734,0
0.736,0
0.738,0
0.74,0
0.742,0
0.744,0
0.746,0
0.748,0
0.75,0
0.752,0
0.754,0
0.756,0
0.758,0
0.76,0
0.762,0
0.764,0
0.766,0
0.768,0
0.77,0
0.772,0
0.774,0
0.776,0
0.778,0
0.78,0
0.782,0
0.784,0
0.786,0
0.788,0
0.79,0
0.792,0
0.794,0
0.796,0
0.798,0
0.8,0
0.802,0
0.804,0
0.806,0
0.808,0
0.81,0
0.812,0
0.814,0
0.816,0
0.818,0
0.82,0
0.822,0
0.824,0
0.826,0
0.828,0
0.83,0
0.832,0
0.834,0
0.836,0
0.838,0
0.84,0
0.842,0
0.844,0
0.846,0
0.848,0
0.85,0
0.852,0
0.854,0
0.856,0
0.858,0
0.86,0
0.862,0
0.864,0
0.866,0
0.868,0
0.87,0
0.872,0
0.874,0
0.876,0
0.878,0
0.88,0
0.882,0
0.884,0
0.886,0
0.888,0
0.89,0
0.892,0
0.894,0
0.896,0
0.898,0
0.9,0
0.902,0
0.904,0
0.906,0
0.908,0
0.91,0
0.912,0
0.914,0
0.916,0
0.918,0
0.92,0
0.922,0
0.924,0
0.926,0
0.928,0
0.93,0
0.932,0
0.934,0
0.936,0
0.938,0
0.94,0
0.942,0
0.944,0
0.946,0
0.948,0
0.95,0
0.952,0
0.954,0
0.956,0
0.958,0
0.96,0
0.962,0
0.964,0
0.966,0
0.968,0
0.97,0
0.972,0
0.974,0
0.976,0
0.978,0
0.98,0
0.982,0
0.984,0
0.986,0
0.988,0
0.99,0
0.992,0
0.994,0
0.996,0
0.998,0
1,0
1.002,0
1.004,0
1.006,0
1.008,0
1.01,0
1.012,0
1.014,0
1.016,0
1.018,0
1.02,0
1.022,0
1.024,0
1.026,0
1.028,0
1.03,0
1.032,0
1.034,0
1.036,0
1.038,0
1.04,0
1.042,0
1.044,0
1.046,0
1.048,0
1.05,0
1.052,0
1.054,0
1.056,0
1.058,0
1.06,0
1.062,0
1.064,0
1.066,0
1.068,0
1.07,0
1.072,0
1.074,0
1.076,0
1.078,0
1.08,0
1.082,0
1.084,0
1.086,0
1.088,0
1.09,0
1.092,0
1.094,0
1.096,0
1.098,0
1.1,0
1.102,0
1.104,0
1.106,0
1.108,0
1.11,0
1.112,0
1.114,0
1.116,0
1.118,0
1.12,0
1.122,0
1.124,0
1.126,0
1.128,0
1.13,0
1.132,0
1.134,0
1.136,0
1.138,0
1.14,0
1.142,0
1.144,0
1.146,0
1.148,0
1.15,0
1.152,0
1.154,0
1.156,0
1.158,0
1.16,0
1.162,0
1.164,0
1.166,0
1.168,0
1.17,0
1.172,0
1.174,0
1.176,0
1.178,0
1.18,0
1.182,0
1.184,0
1.186,0
1.188,0
1.19,0
1.192,0
1.194,0
1.196,0
1.198,0
1.2,0
1.202,0
1.204,0
1.206,0
1.208,0
1.21,0
1.212,0
1.214,0
1.216,0
1.218,0
1.22,0
1.222,0
1.224,0
1.226,0
1.228,0
1.23,0
1.232,0
1.234,0
1.236,0
1.238,0
1.24,0
1.242,0
1.244,0
1.246,0
1.248,0
1.25,0
1.252,0
1.254,0
1.256,0
1.258,0
1.26,0
1.262,0
1.264,0
1.266,0
1.268,0
1.27,0
1.272,0
1.274,0
1.276,0
1.278,0
1.28,0
1.282,0
1.284,0
1.286,0
1.288,0
1.29,0
1.292,0
1.294,0
1.296,0
1.298,0
1.3,0
1.302,0
1.304,0
1.306,0
1.308,0
1.31,0
1.312,0
1.314,0
1.316,0
1.318,0
1.32,0
1.322,0
1.324,0
1.326,0
1.328,0
1.33,0
1.332,0
1.334,0
1.336,0
1.338,0
1.34,0
1.342,0
1.344,0
1.346,0
1.348,0
1.35,0
1.352,0
1.354,0
1.356,0
1.358,0
1.36,0
1.362,0
1.364,0
1.366,0
1.368,0
1.37,0
1.372,0
1.374,0
1.376,0
1.378,0
1.38,0
1.382,-0.00708460711772357
1.384,-0.00875867789606505
1.386,-0.0097707094803553
1.388,-0.0100503433721833
1.39,-0.0095272210731378
1.392,-0.00813098408480784
1.394,-0.00579127390878231
1.396,-0.00243773204665004
1.398,0.002
1.4,0.00759228072957896
1.402,0.0144094686404979
1.404,0.0225219222311678
1.406,0.032
1.408,0.0426795580987543
1.41,0.0534584432925861
1.412,0.063
1.414,0.0703086533523926
1.416,0.0757531513327301
1.418,0.0800433226368714
1.42,0.0838889959606751
1.422,0.088
1.424,0.0928813623772117
1.426,0.0982189064207034
1.428,0.103493654385375
1.43,0.108186628526127
1.432,0.11177885109786
1.434,0.113769020525728
1.436,0.114062387150768
1.438,0.112970753229892
1.44,0.11082359719027
1.442,0.107950397459071
1.444,0.104680632463465
1.446,0.101322448742521
1.448,0.0976933594089958
1.45,0.0931202441493368
1.452,0.0869086507618899
1.454,0.0783641270450015
1.456,0.0668822379065784
1.458,0.0539289417744214
1.46,0.0429403503473251
1.462,0.0351370667089276
1.464,0.02943416821815
1.466,0.0246658413406259
1.468,0.0201113077210971
1.47,0.0154948241834132
1.472,0.010559996907037
1.474,0.00505043207143152
1.476,-0.00126930799882813
1.478,-0.00815266964158817
1.48,-0.0148711078571161
1.482,-0.0206751215005672
1.484,-0.0248404509021935
1.486,-0.0272233903194679
1.488,-0.0282607879370846
1.49,-0.0284147334148342
1.492,-0.0281473164125075
1.494,-0.0279110227506538
1.496,-0.0279374499472761
1.498,-0.0282373072178306
1.5,-0.0288116999385322
1.502,-0.0296617334855958
1.504,-0.0307885132352366
1.506,-0.0321931445636694
1.508,-0.0338708461454447
1.51,-0.0356814425168278
1.512,-0.0373493640757983
1.514,-0.0385931545186718
1.516,-0.0391313575417635
1.518,-0.0386825168413888
1.52,-0.0369941879126011
1.522,-0.0344811976214325
1.524,-0.0322256442048932
1.526,-0.0313386376987318
1.528,-0.0329312881386968
1.53,-0.0381147055605367
1.532,-0.048
1.534,-0.0626784974835354
1.536,-0.0781623880003917
1.538,-0.0894440775305174
1.54,-0.0915159720538615
1.542,-0.0793704775503728
1.544,-0.048
1.546,0.00787945198275486
1.548,0.0946574592451774
1.55,0.219
1.552,0.381817728105234
1.554,0.561000000000002
1.556,0.731376282654542
1.558,0.878557782582414
1.56,0.990851141183019
1.562,1.05656299985575
1.564,1.064
1.566,1.00488859171392
1.568,0.884634459890632
1.57,0.712063098122032
1.572,0.496
1.574,0.254558087983522
1.576,0.043
1.578,-0.0893680600355242
1.58,-0.154215339725855
1.582,-0.178454949553258
1.584,-0.189
1.586,-0.207222774035877
1.588,-0.232332244580807
1.59,-0.257996557042236
1.592,-0.277883856827612
1.594,-0.285662289344385
1.596,-0.275
1.598,-0.243436904532212
1.6,-0.204
1.602,-0.169825574630218
1.604,-0.139
1.606,-0.107510796946915
1.608,-0.078
1.61,-0.0537956915439227
1.612,-0.0343156316944211
1.614,-0.018
1.616,-0.00368003270056166
1.618,0.00824880719840165
1.62,0.0170000000000001
1.622,0.0220597302817335
1.624,0.024004999718662
1.626,0.0236855142602354
1.628,0.0219509798559031
1.63,0.0196511024551151
1.632,0.0176355880073211
1.634,0.0167297140094783
1.636,0.0171969035512132
1.638,0.0187387253148218
1.64,0.0210323195301075
1.642,0.0237548264268736
1.644,0.0265833862349236
1.646,0.0291951391840608
1.648,0.0312672255040886
1.65,0.0324905874761291
1.652,0.0328736145616375
1.654,0.0327421434024014
1.656,0.0324358126915276
1.658,0.0322942611221227
1.66,0.0326571273872933
1.662,0.033864050180146
1.664,0.0362546681937876
1.666,0.0401436841055604
1.668,0.0452722722302258
1.67,0.0508080785199653
1.672,0.0558938129111955
1.674,0.0596998208139116
1.676,0.0620320635304039
1.678,0.0633321182552582
1.68,0.0640691976566383
1.682,0.0647125144027081
1.684,0.0657312811616315
1.686,0.0675947106015724
1.688,0.0707720153906946
1.69,0.075707707542456
1.692,0.0822781840120751
1.694,0.0897917266965311
1.696,0.0975319168380971
1.698,0.104782335679046
1.7,0.110850674447582
1.702,0.115599154048302
1.704,0.119444525062197
1.706,0.122827648056189
1.708,0.1261893835972
1.71,0.129961074483104
1.712,0.134355154823714
1.714,0.139365150040776
1.716,0.144975067786991
1.718,0.151180214652303
1.72,0.15823577278326
1.722,0.166656799883013
1.724,0.176969652591957
1.726,0.189615019787096
1.728,0.203063231787402
1.73,0.213945376139752
1.732,0.221822535704069
1.734,0.229271456416719
1.736,0.239
1.738,0.252792250946704
1.74,0.268737184831612
1.742,0.284
1.744,0.296733016402373
1.746,0.309037040410155
1.748,0.324
1.75,0.3435530184195
1.752,0.365
1.754,0.38471751296214
1.756,0.4
1.758,0.409951929731939
1.76,0.42
1.762,0.434849768110105
1.764,0.45
1.766,0.460110519769421
1.768,0.465692175534234
1.77,0.468718571414336
1.772,0.471163311529625
1.774,0.475
1.776,0.481537130450361
1.778,0.489422754525623
1.78,0.496639813375705
1.782,0.501171248150525
1.784,0.501
1.786,0.494957174166807
1.788,0.485266532264652
1.79,0.475
1.792,0.466376167431725
1.794,0.458200282028347
1.796,0.448424255610795
1.798,0.435
1.8,0.416718057527356
1.802,0.395723492566117
1.804,0.375
1.806,0.356409315249406
1.808,0.337325335881468
1.81,0.314
1.812,0.284481119319851
1.814,0.254
1.816,0.227801351245305
1.818,0.204
1.82,0.180063475698928
1.822,0.158
1.824,0.14025968249682
1.826,0.12651949230269
1.828,0.115763113410835
1.83,0.106974229814481
1.832,0.0991530840322818
1.834,0.0916807646677251
1.836,0.084319206409132
1.838,0.0768469024702515
1.84,0.0690487177674925
1.842,0.0608560663784479
1.844,0.0523469115418942
1.846,0.0436145721538932
1.848,0.0349589980668937
1.85,0.0268867700897307
1.852,0.0199134529858649
1.854,0.0145372349964884
1.856,0.0108566443506153
1.858,0.00857054926508249
1.86,0.00736044143445785
1.862,0.00690781255330947
1.864,0.00689415431620538
1.866,0.00700095841771364
1.868,0.00691791906911415
1.87,0.0065233883660587
1.872,0.00588437628857097
1.874,0.00507609533338665
1.876,0.00417375799724118
1.878,0.00325257677687024
1.88,0.00238776416900932
1.882,0
1.884,0
1.886,0
1.888,0
1.89,0
1.892,0
1.894,0
1.896,0
1.898,0
1.9,0
1.902,0
1.904,0
1.906,0
1.908,0
1.91,0
1.912,0
1.914,0
1.916,0
1.918,0
1.92,0
1.922,0
1.924,0
1.926,0
1.928,0
1.93,0
1.932,0
1.934,0
1.936,0
1.938,0
1.94,0
1.942,0
1.944,0
1.946,0
1.948,0
1.95,0
1.952,0
1.954,0
1.956,0
1.958,0
1.96,0
1.962,0
1.964,0
1.966,0
1.968,0
1.97,0
1.972,0
1.974,0
1.976,0
1.978,0
1.98,0
1.982,0
1.984,0
1.986,0
1.988,0
1.99,0
1.992,0
1.994,0
1.996,0
1.998,0
2,0
2.002,0
2.004,0
2.006,0
2.008,0
2.01,0
2.012,0
2.014,0
2.016,0
2.018,0
2.02,0
2.022,0
2.024,0
2.026,0
2.028,0
2.03,0
2.032,0
2.034,0
2.036,0
2.038,0
2.04,0
2.042,0
2.044,0
2.046,0
2.048,0
2.05,0
2.052,0
2.054,0
2.056,0
2.058,0
2.06,0
2.062,0
2.064,0
2.066,0
2.068,0
2.07,0
2.072,0
2.074,0
2.076,0
2.078,0
2.08,0
2.082,0
2.084,0
2.086,0
2.088,0
2.09,0
2.092,0
2.094,0
2.096,0
2.098,0
2.1,0
2.102,0
2.104,0
2.106,0
2.108,0
2.11,0
2.112,0
2.114,0
2.116,0
2.118,0
2.12,0
2.122,0
2.124,0
2.126,0
2.128,0
2.13,0
2.132,0
2.134,0
2.136,0
2.138,0
2.14,0
2.142,0
2.144,0
2.146,0
2.148,0
2.15,0
2.152,0
2.154,0
2.156,0
2.158,0
2.16,0
2.162,0
2.164,0
2.166,0
2.168,0
2.17,0
2.172,0
2.174,0
2.176,0
2.178,0
2.18,0
2.182,0
2.184,0
2.186,0
2.188,0
2.19,0
2.192,0
2.194,0
2.196,0
2.198,0
2.2,0
2.202,0
2.204,0
2.206,0
2.208,0
2.21,0
2.212,0
2.214,0
2.216,0
2.218,0
2.22,0
2.222,0
2.224,0
2.226,0
2.228,0
2.23,0
2.232,0
2.234,0
2.236,0
2.238,0
2.24,0
2.242,0
2.244,0
2.246,0
2.248,0
2.25,0
2.252,0
2.254,0
2.256,0
2.258,0
2.26,0
2.262,0
2.264,0
2.266,0
2.268,0
2.27,0
2.272,0
2.274,0
2.276,0
2.278,0
2.28,0
2.282,0
2.284,0
2.286,0
2.288,0
2.29,0
2.292,0
2.294,0
2.296,0
2.298,0
2.3,0
2.302,0
2.304,0
2.306,0
2.308,0
2.31,0
2.312,0
2.314,0
2.316,0
2.318,0
2.32,0
2.322,0
2.324,0
2.326,0
2.328,0
2.33,0
2.332,0
2.334,0
2.336,0
2.338,0
2.34,0
2.342,0
2.344,0
2.346,0
2.348,0
2.35,0
2.352,0
2.354,0
2.356,0
2.358,0
2.36,0
2.362,0
2.364,0
2.366,0
2.368,0
2.37,0
2.372,0
2.374,0
2.376,0
2.378,0
2.38,0
2.382,0
2.384,0
2.386,0
2.388,0
2.39,0
2.392,0
2.394,0
2.396,0
2.398,0
2.4,0
2.402,0
2.404,0
2.406,0
2.408,0
2.41,0
2.412,0
2.414,0
2.416,0
2.418,0
2.42,0
2.422,0
2.424,0
2.426,0
2.428,0
2.43,0
2.432,0
2.434,0
2.436,0
2.438,0
2.44,0
2.442,0
2.444,0
2.446,0
2.448,0
2.45,0
2.452,0
2.454,0
2.456,0
2.458,0
2.46,0
2.462,0
2.464,0
2.466,0
2.468,0
2.47,0
2.472,0
2.474,0
2.476,0
2.478,0
2.48,0
2.482,0
2.484,0
2.486,0
2.488,0
2.49,0
2.492,0
2.494,0
2.496,0
2.498,0
2.5,0
2.502,0
2.504,0
2.506,0
2.508,0
2.51,0
2.512,0
2.514,0
2.516,0
2.518,0
2.52,0
2.522,0
2.524,0
2.526,0
2.528,0
2.53,0
2.532,0
2.534,0
2.536,0
2.538,0
2.54,0
2.542,0
2.544,0
2.546,0
2.548,0
2.55,0
2.552,0
2.554,0
2.556,0
2.558,0
2.56,0
2.562,0
2.564,0
2.566,0
2.568,0
2.57,0
2.572,0
2.574,0
2.576,0
2.578,0
2.58,0
2.582,0
2.584,0
2.586,0
2.588,0
2.59,0
2.592,0
2.594,0
2.596,0
2.598,0
2.6,0
2.602,0
2.604,0
2.606,0
2.608,0
2.61,0
2.612,0
2.614,0
2.616,0
2.618,0
2.62,0
2.622,0
2.624,0
2.626,0
2.628,0
2.63,0
2.632,0
2.634,0
2.636,0
2.638,0
2.64,0
2.642,0
2.644,0
2.646,0
2.648,0
2.65,0
2.652,0
2.654,0
2.656,0
2.658,0
2.66,0
2.662,0
2.664,0
2.666,0
2.668,0
2.67,0
2.672,0
2.674,0
2.676,0
2.678,0
2.68,0
2.682,0
2.684,0
2.686,0
2.688,0
2.69,0
2.692,0
2.694,0
2.696,0
2.698,0
2.7,0
2.702,0
2.704,0
2.706,0
2.708,0
2.71,0
2.712,0
2.714,0
2.716,0
2.718,0
2.72,0
2.722,0
2.724,0
2.726,0
2.728,0
2.73,0
2.732,0
2.734,0
2.736,0
2.738,0
2.74,0
2.742,0
2.744,0
2.746,0
2.748,0
2.75,0
2.752,0
2.754,0
2.756,0
2.758,0
2.76,0
2.762,0
2.764,0
2.766,0
2.768,0
2.77,0
2.772,0
2.774,0
2.776,0
2.778,0
2.78,0
2.782,0
2.784,0
2.786,0
2.788,0
2.79,0
2.792,0
2.794,0
2.796,0
2.798,0
2.8,0
2.802,0
2.804,0
2.806,0
2.808,0
2.81,0
2.812,0
2.814,0
2.816,0
2.818,0
2.82,0
2.822,0
2.824,0
2.826,0
2.828,0
2.83,0
2.832,0
2.834,0
2.836,0
2.838,0
2.84,0
2.842,0
2.844,0
2.846,0
2.848,0
2.85,0
2.852,0
2.854,0
2.856,0
2.858,0
2.86,0
2.862,0
2.864,0
2.866,0
2.868,0
2.87,0
2.872,0
2.874,0
2.876,0
2.878,0
2.88,0
2.882,0
2.884,0
2.886,0
2.888,0
2.89,0
2.892,0
2.894,0
2.896,0
2.898,0
2.9,0
2.902,0
2.904,0
2.906,0
2.908,0
2.91,0
2.912,0
2.914,0
2.916,0
2.918,0
2.92,0
2.922,0
2.924,0
2.926,0
2.928,0
2.93,0
2.932,0
2.934,0
2.936,0
2.938,0
2.94,0
2.942,0
2.944,0
2.946,0
2.948,0
2.95,0
2.952,0
2.954,0
2.956,0
2.958,0
2.96,0
2.962,0
2.964,0
2.966,0
2.968,0
2.97,0
2.972,0
2.974,0
2.976,0
2.978,0
2.98,0
2.982,0
2.984,0
2.986,0
2.988,0
2.99,0
2.992,0
2.994,0
2.996,-0.00708460711772357
2.998,-0.00875867789606505
3,-0.0097707094803553
3.002,-0.0100503433721833
3.004,-0.0095272210731378
3.006,-0.00813098408480784
3.008,-0.00579127390878231
3.01,-0.00243773204665004
3.012,0.002
3.014,0.00759228072957896
3.016,0.0144094686404979
3.018,0.0225219222311678
3.02,0.032
3.022,0.0426795580987543
3.024,0.0534584432925861
3.026,0.063
3.028,0.0703086533523926
3.03,0.0757531513327301
3.032,0.0800433226368714
3.034,0.0838889959606751
3.036,0.088
3.038,0.0928813623772117
3.04,0.0982189064207034
3.042,0.103493654385375
3.044,0.108186628526127
3.046,0.11177885109786
3.048,0.113769020525728
3.05,0.114062387150768
3.052,0.112970753229892
3.054,0.11082359719027
3.056,0.107950397459071
3.058,0.104680632463465
3.06,0.101322448742521
3.062,0.0976933594089958
3.064,0.0931202441493368
3.066,0.0869086507618899
3.068,0.0783641270450015
3.07,0.0668822379065784
3.072,0.0539289417744214
3.074,0.0429403503473251
3.076,0.0351370667089276
3.078,0.02943416821815
3.08,0.0246658413406259
3.082,0.0201113077210971
3.084,0.0154948241834132
3.086,0.010559996907037
3.088,0.00505043207143152
3.09,-0.00126930799882813
3.092,-0.00815266964158817
3.094,-0.0148711078571161
3.096,-0.0206751215005672
3.098,-0.0248404509021935
3.1,-0.0272233903194679
3.102,-0.0282607879370846
3.104,-0.0284147334148342
3.106,-0.0281473164125075
3.108,-0.0279110227506538
3.11,-0.0279374499472761
3.112,-0.0282373072178306
3.114,-0.0288116999385322
3.116,-0.0296617334855958
3.118,-0.0307885132352366
3.12,-0.0321931445636694
3.122,-0.0338708461454447
3.124,-0.0356814425168278
3.126,-0.0373493640757983
3.128,-0.0385931545186718
3.13,-0.0391313575417635
3.132,-0.0386825168413888
3.134,-0.0369941879126011
3.136,-0.0344811976214325
3.138,-0.0322256442048932
3.14,-0.0313386376987318
3.142,-0.0329312881386968
3.144,-0.0381147055605367
3.146,-0.048
3.148,-0.0626784974835354
3.15,-0.0781623880003917
3.152,-0.0894440775305174
3.154,-0.0915159720538615
3.156,-0.0793704775503728
3.158,-0.048
3.16,0.00787945198275486
3.162,0.0946574592451774
3.164,0.219
3.166,0.381817728105234
3.168,0.561000000000002
3.17,0.731376282654542
3.172,0.878557782582414
3.174,0.990851141183019
3.176,1.05656299985575
3.178,1.064
3.18,1.00488859171392
3.182,0.884634459890632
3.184,0.712063098122032
3.186,0.496
3.188,0.254558087983522
3.19,0.043
3.192,-0.0893680600355242
3.194,-0.154215339725855
3.196,-0.178454949553258
3.198,-0.189
3.2,-0.207222774035877
3.202,-0.232332244580807
3.204,-0.257996557042236
3.206,-0.277883856827612
3.208,-0.285662289344385
3.21,-0.275
3.212,-0.243436904532212
3.214,-0.204
3.216,-0.169825574630218
3.218,-0.139
3.22,-0.107510796946915
3.222,-0.078
3.224,-0.0537956915439227
3.226,-0.0343156316944211
3.228,-0.018
3.23,-0.00368003270056166
3.232,0.00824880719840165
3.234,0.0170000000000001
3.236,0.0220597302817335
3.238,0.024004999718662
3.24,0.0236855142602354
3.242,0.0219509798559031
3.244,0.0196511024551151
3.246,0.0176355880073211
3.248,0.0167297140094783
3.25,0.0171969035512132
3.252,0.0187387253148218
3.254,0.0210323195301075
3.256,0.0237548264268736
3.258,0.0265833862349236
3.26,0.0291951391840608
3.262,0.0312672255040886
3.264,0.0324905874761291
3.266,0.0328736145616375
3.268,0.0327421434024014
3.27,0.0324358126915276
3.272,0.0322942611221227
3.274,0.0326571273872933
3.276,0.033864050180146
3.278,0.0362546681937876
3.28,0.0401436841055604
3.282,0.0452722722302258
3.284,0.0508080785199653
3.286,0.0558938129111955
3.288,0.0596998208139116
3.29,0.0620320635304039
3.292,0.0633321182552582
3.294,0.0640691976566383
3.296,0.0647125144027081
3.298,0.0657312811616315
3.3,0.0675947106015724
3.302,0.0707720153906946
3.304,0.075707707542456
3.306,0.0822781840120751
3.308,0.0897917266965311
3.31,0.0975319168380971
3.312,0.104782335679046
3.314,0.110850674447582
3.316,0.115599154048302
3.318,0.119444525062197
3.32,0.122827648056189
3.322,0.1261893835972
3.324,0.129961074483104
3.326,0.134355154823714
3.328,0.139365150040776
3.33,0.144975067786991
3.332,0.151180214652303
3.334,0.15823577278326
3.336,0.166656799883013
3.338,0.176969652591957
3.34,0.189615019787096
3.342,0.203063231787402
3.344,0.213945376139752
3.346,0.221822535704069
3.348,0.229271456416719
3.35,0.239
3.352,0.252792250946704
3.354,0.268737184831612
3.356,0.284
3.358,0.296733016402373
3.36,0.309037040410155
3.362,0.324
3.364,0.3435530184195
3.366,0.365
3.368,0.38471751296214
3.37,0.4
3.372,0.409951929731939
3.374,0.42
3.376,0.434849768110105
3.378,0.45
3.38,0.460110519769421
3.382,0.465692175534234
3.384,0.468718571414336
3.386,0.471163311529625
3.388,0.475
3.39,0.481537130450361
3.392,0.489422754525623
3.394,0.496639813375705
3.396,0.501171248150525
3.398,0.501
3.4,0.494957174166807
3.402,0.485266532264652
3.404,0.475
3.406,0.466376167431725
3.408,0.458200282028347
3.41,0.448424255610795
3.412,0.435
3.414,0.416718057527356
3.416,0.395723492566117
3.418,0.375
3.42,0.356409315249406
3.422,0.337325335881468
3.424,0.314
3.426,0.284481119319851
3.428,0.254
3.43,0.227801351245305
3.432,0.204
3.434,0.180063475698928
3.436,0.158
3.438,0.14025968249682
3.44,0.12651949230269
3.442,0.115763113410835
3.444,0.106974229814481
3.446,0.0991530840322818
3.448,0.0916807646677251
3.45,0.084319206409132
3.452,0.0768469024702515
3.454,0.0690487177674925
3.456,0.0608560663784479
3.458,0.0523469115418942
3.46,0.0436145721538932
3.462,0.0349589980668937
3.464,0.0268867700897307
3.466,0.0199134529858649
3.468,0.0145372349964884
3.47,0.0108566443506153
3.472,0.00857054926508249
3.474,0.00736044143445785
3.476,0.00690781255330947
3.478,0.00689415431620538
3.48,0.00700095841771364
3.482,0.00691791906911415
3.484,0.0065233883660587
3.486,0.00588437628857097
3.488,0.00507609533338665
3.49,0.00417375799724118
3.492,0.00325257677687024
3.494,0.00238776416900932
3.496,0
3.498,0
3.5,0
3.502,0
3.504,0
3.506,0
3.508,0
3.51,0
3.512,0
3.514,0
3.516,0
3.518,0
3.52,0
3.522,0
3.524,0
3.526,0
3.528,0
3.53,0
3.532,0
3.534,0
3.536,0
3.538,0
3.54,0
3.542,0
3.544,0
3.546,0
3.548,0
3.55,0
3.552,0
3.554,0
3.556,0
3.558,0
3.56,0
3.562,0
3.564,0
3.566,0
3.568,0
3.57,0
3.572,0
3.574,0
3.576,0
3.578,0
3.58,0
3.582,0
3.584,0
3.586,0
3.588,0
3.59,0
3.592,0
3.594,0
3.596,0
3.598,0
3.6,0
3.602,0
3.604,0
3.606,0
3.608,0
3.61,0
3.612,0
3.614,0
3.616,0
3.618,0
3.62,0
3.622,0
3.624,0
3.626,0
3.628,0
3.63,0
3.632,0
3.634,0
3.636,0
3.638,0
3.64,0
3.642,0
3.644,0
3.646,0
3.648,0
3.65,0
3.652,0
3.654,0
3.656,0
3.658,0
3.66,0
3.662,0
3.664,0
3.666,0
3.668,0
3.67,0
3.672,0
3.674,0
3.676,0
3.678,0
3.68,0
3.682,0
3.684,0
3.686,0
3.688,0
3.69,0
3.692,0
3.694,0
3.696,0
3.698,0
3.7,0
3.702,0
3.704,0
3.706,0
3.708,0
3.71,0
3.712,0
3.714,0
3.716,0
3.718,0
3.72,0
3.722,0
3.724,0
3.726,0
3.728,0
3.73,0
3.732,0
3.734,0
3.736,0
3.738,0
3.74,0
3.742,0
3.744,0
3.746,0
3.748,0
3.75,0
3.752,0
3.754,0
3.756,0
3.758,0
3.76,0
3.762,0
3.764,0
3.766,0
3.768,0
3.77,0
3.772,0
3.774,0
3.776,0
3.778,0
3.78,0
3.782,0
3.784,0
3.786,0
3.788,0
3.79,0
3.792,0
3.794,0
3.796,0
3.798,0
3.8,0
3.802,0
3.804,0
3.806,0
3.808,0
3.81,0
3.812,0
3.814,0
3.816,0
3.818,0
3.82,0
3.822,0
3.824,0
3.826,0
3.828,0
3.83,0
3.832,0
3.834,0
3.836,0
3.838,0
3.84,0
3.842,0
3.844,0
3.846,0
3.848,0
3.85,0
3.852,0
3.854,0
3.856,0
3.858,0
3.86,0
3.862,0
3.864,0
3.866,0
3.868,0
3.87,0
3.872,0
3.874,0
3.876,0
3.878,0
3.88,0
3.882,0
3.884,0
3.886,0
3.888,0
3.89,0
3.892,0
3.894,0
3.896,0
3.898,0
3.9,0
3.902,0
3.904,0
3.906,0
3.908,0
3.91,0
3.912,0
3.914,0
3.916,0
3.918,0
3.92,0
3.922,0
3.924,0
3.926,0
3.928,0
3.93,0
3.932,0
3.934,0
3.936,0
3.938,0
3.94,0
3.942,0
3.944,0
3.946,0
3.948,0
3.95,0
3.952,0
3.954,0
3.956,0
3.958,0
3.96,0
3.962,0
3.964,0
3.966,0
3.968,0
3.97,0
3.972,0
3.974,0
3.976,0
3.978,0
3.98,0
3.982,0
3.984,0
3.986,0
3.988,0
3.99,0
3.992,0
3.994,0
3.996,0
3.998,0
4,0
4.002,0
4.004,0
4.006,0
4.008,0
4.01,0
4.012,0
4.014,0
4.016,0
4.018,0
4.02,0
4.022,0
4.024,0
4.026,0
4.028,0
4.03,0
4.032,0
4.034,0
4.036,0
4.038,0
4.04,0
4.042,0
4.044,0
4.046,0
4.048,0
4.05,0
4.052,0
4.054,0
4.056,0
4.058,0
4.06,0
4.062,0
4.064,0
4.066,0
4.068,0
4.07,0
4.072,0
4.074,0
4.076,0
4.078,0
4.08,0
4.082,0
4.084,0
4.086,0
4.088,0
4.09,0
4.092,0
4.094,0
4.096,0
4.098,0
4.1,0
4.102,0
4.104,0
4.106,0
4.108,0
4.11,0
4.112,0
4.114,0
4.116,0
4.118,0
4.12,0
4.122,0
4.124,0
4.126,0
4.128,0
4.13,0
4.132,0
4.134,0
4.136,0
4.138,0
4.14,0
4.142,0
4.144,0
4.146,0
4.148,0
4.15,0
4.152,0
4.154,0
4.156,0
4.158,0
4.16,0
4.162,0
4.164,0
4.166,0
4.168,0
4.17,0
4.172,0
4.174,0
4.176,0
4.178,0
4.18,0
4.182,0
4.184,0
4.186,0
4.188,0
4.19,0
4.192,0
4.194,0
4.196,0
4.198,0
4.2,0
4.202,0
4.204,0
4.206,0
4.208,0
4.21,0
4.212,0
4.214,0
4.216,0
4.218,0
4.22,0
4.222,0
4.224,0
4.226,0
4.228,0
4.23,0
4.232,0
4.234,0
4.236,0
4.238,0
4.24,0
4.242,0
4.244,0
4.246,0
4.248,0
4.25,0
4.252,0
4.254,0
4.256,0
4.258,0
4.26,0
4.262,0
4.264,0
4.266,0
4.268,0
4.27,0
4.272,0
4.274,0
4.276,0
4.278,0
4.28,0
4.282,0
4.284,0
4.286,0
4.288,0
4.29,0
4.292,0
4.294,0
4.296,0
4.298,0
4.3,0
4.302,0
4.304,0
4.306,0
4.308,0
4.31,0
4.312,0
4.314,0
4.316,0
4.318,0
4.32,0
4.322,0
4.324,0
4.326,0
4.328,0
4.33,0
4.332,0
4.334,0
4.336,0
4.338,0
4.34,0
4.342,0
4.344,0
4.346,0
4.348,0
4.35,0
4.352,0
4.354,0
4.356,0
4.358,0
4.36,0
4.362,0
4.364,0
4.366,0
4.368,0
4.37,0
4.372,0
4.374,0
4.376,0
4.378,0
4.38,0
4.382,0
4.384,0
4.386,0
4.388,0
4.39,0
4.392,0
4.394,0
4.396,0
4.398,0
4.4,0
4.402,0
4.404,0
4.406,0
4.408,0
4.41,0
4.412,0
4.414,0
4.416,0
4.418,0
4.42,0
4.422,0
4.424,0
4.426,0
4.428,0
4.43,0
4.432,0
4.434,0
4.436,0
4.438,0
4.44,0
4.442,0
4.444,0
4.446,0
4.448,0
4.45,0
4.452,0
4.454,0
4.456,0
4.458,0
4.46,0
4.462,0
4.464,0
4.466,0
4.468,0
4.47,0
4.472,0
4.474,0
4.476,0
4.478,0
4.48,0
4.482,0
4.484,0
4.486,0
4.488,0
4.49,0
4.492,0
4.494,0
4.496,0
4.498,0
4.5,0
4.502,0
4.504,0
4.506,0
4.508,0
4.51,0
4.512,0
4.514,0
4.516,0
4.518,0
4.52,0
4.522,0
4.524,0
4.526,0
4.528,0
4.53,0
4.532,0
4.534,0
4.536,0
4.538,0
4.54,0
4.542,0
4.544,0
4.546,0
4.548,0
4.55,0
4.552,0
4.554,0
4.556,0
4.558,0
4.56,0
4.562,0
4.564,0
4.566,0
4.568,0
4.57,0
4.572,0
4.574,0
4.576,0
4.578,0
4.58,0
4.582,0
4.584,0
4.586,0
4.588,0
4.59,0
4.592,-0.00708460711772357
4.594,-0.00875867789606505
4.596,-0.0097707094803553
4.598,-0.0100503433721833
4.6,-0.0095272210731378
4.602,-0.00813098408480784
4.604,-0.00579127390878231
4.606,-0.00243773204665004
4.608,0.002
4.61,0.00759228072957896
4.612,0.0144094686404979
4.614,0.0225219222311678
4.616,0.032
4.618,0.0426795580987543
4.62,0.0534584432925861
4.622,0.063
4.624,0.0703086533523926
4.626,0.0757531513327301
4.628,0.0800433226368714
4.63,0.0838889959606751
4.632,0.088
4.634,0.0928813623772117
4.636,0.0982189064207034
4.638,0.103493654385375
4.64,0.108186628526127
4.642,0.11177885109786
4.644,0.113769020525728
4.646,0.114062387150768
4.648,0.112970753229892
4.65,0.11082359719027
4.652,0.107950397459071
4.654,0.104680632463465
4.656,0.101322448742521
4.658,0.0976933594089958
4.66,0.0931202441493368
4.662,0.0869086507618899
4.664,0.0783641270450015
4.666,0.0668822379065784
4.668,0.0539289417744214
4.67,0.0429403503473251
4.672,0.0351370667089276
4.674,0.02943416821815
4.676,0.0246658413406259
4.678,0.0201113077210971
4.68,0.0154948241834132
4.682,0.010559996907037
4.684,0.00505043207143152
4.686,-0.00126930799882813
4.688,-0.00815266964158817
4.69,-0.0148711078571161
4.692,-0.0206751215005672
4.694,-0.0248404509021935
4.696,-0.0272233903194679
4.698,-0.0282607879370846
4.7,-0.0284147334148342
4.702,-0.0281473164125075
4.704,-0.0279110227506538
4.706,-0.0279374499472761
4.708,-0.0282373072178306
4.71,-0.0288116999385322
4.712,-0.0296617334855958
4.714,-0.0307885132352366
4.716,-0.0321931445636694
4.718,-0.0338708461454447
4.72,-0.0356814425168278
4.722,-0.0373493640757983
4.724,-0.0385931545186718
4.726,-0.0391313575417635
4.728,-0.0386825168413888
4.73,-0.0369941879126011
4.732,-0.0344811976214325
4.734,-0.0322256442048932
4.736,-0.0313386376987318
4.738,-0.0329312881386968
4.74,-0.0381147055605367
4.742,-0.048
4.744,-0.0626784974835354
4.746,-0.0781623880003917
4.748,-0.0894440775305174
4.75,-0.0915159720538615
4.752,-0.0793704775503728
4.754,-0.048
4.756,0.00787945198275486
4.758,0.0946574592451774
4.76,0.219
4.762,0.381817728105234
4.764,0.561000000000002
4.766,0.731376282654542
4.768,0.878557782582414
4.77,0.990851141183019
4.772,1.05656299985575
4.774,1.064
4.776,1.00488859171392
4.778,0.884634459890632
4.78,0.712063098122032
4.782,0.496
4.784,0.254558087983522
4.786,0.043
4.788,-0.0893680600355242
4.79,-0.154215339725855
4.792,-0.178454949553258
4.794,-0.189
4.796,-0.207222774035877
4.798,-0.232332244580807
4.8,-0.257996557042236
4.802,-0.277883856827612
4.804,-0.285662289344385
4.806,-0.275
4.808,-0.243436904532212
4.81,-0.204
4.812,-0.169825574630218
4.814,-0.139
4.816,-0.107510796946915
4.818,-0.078
4.82,-0.0537956915439227
4.822,-0.0343156316944211
4.824,-0.018
4.826,-0.00368003270056166
4.828,0.00824880719840165
4.83,0.0170000000000001
4.832,0.0220597302817335
4.834,0.024004999718662
4.836,0.0236855142602354
4.838,0.0219509798559031
4.84,0.0196511024551151
4.842,0.0176355880073211
4.844,0.0167297140094783
4.846,0.0171969035512132
4.848,0.0187387253148218
4.85,0.0210323195301075
4.852,0.0237548264268736
4.854,0.0265833862349236
4.856,0.0291951391840608
4.858,0.0312672255040886
4.86,0.0324905874761291
4.862,0.0328736145616375
4.864,0.0327421434024014
4.866,0.0324358126915276
4.868,0.0322942611221227
4.87,0.0326571273872933
4.872,0.033864050180146
4.874,0.0362546681937876
4.876,0.0401436841055604
4.878,0.0452722722302258
4.88,0.0508080785199653
4.882,0.0558938129111955
4.884,0.0596998208139116
4.886,0.0620320635304039
4.888,0.0633321182552582
4.89,0.0640691976566383
4.892,0.0647125144027081
4.894,0.0657312811616315
4.896,0.0675947106015724
4.898,0.0707720153906946
4.9,0.075707707542456
4.902,0.0822781840120751
4.904,0.0897917266965311
4.906,0.0975319168380971
4.908,0.104782335679046
4.91,0.110850674447582
4.912,0.115599154048302
4.914,0.119444525062197
4.916,0.122827648056189
4.918,0.1261893835972
4.92,0.129961074483104
4.922,0.134355154823714
4.924,0.139365150040776
4.926,0.144975067786991
4.928,0.151180214652303
4.93,0.15823577278326
4.932,0.166656799883013
4.934,0.176969652591957
4.936,0.189615019787096
4.938,0.203063231787402
4.94,0.213945376139752
4.942,0.221822535704069
4.944,0.229271456416719
4.946,0.239
4.948,0.252792250946704
4.95,0.268737184831612
4.952,0.284
4.954,0.296733016402373
4.956,0.309037040410155
4.958,0.324
4.96,0.3435530184195
4.962,0.365
4.964,0.38471751296214
4.966,0.4
4.968,0.409951929731939
4.97,0.42
4.972,0.434849768110105
4.974,0.45
4.976,0.460110519769421
4.978,0.465692175534234
4.98,0.468718571414336
4.982,0.471163311529625
4.984,0.475
4.986,0.481537130450361
4.988,0.489422754525623
4.99,0.496639813375705
4.992,0.501171248150525
4.994,0.501
4.996,0.494957174166807
4.998,0.485266532264652
5,0.475
5.002,0.466376167431725
5.004,0.458200282028347
5.006,0.448424255610795
5.008,0.435
5.01,0.416718057527356
5.012,0.395723492566117
5.014,0.375
5.016,0.356409315249406
5.018,0.337325335881468
5.02,0.314
5.022,0.284481119319851
5.024,0.254
5.026,0.227801351245305
5.028,0.204
5.03,0.180063475698928
5.032,0.158
5.034,0.14025968249682
5.036,0.12651949230269
5.038,0.115763113410835
5.04,0.106974229814481
5.042,0.0991530840322818
5.044,0.0916807646677251
5.046,0.084319206409132
5.048,0.0768469024702515
5.05,0.0690487177674925
5.052,0.0608560663784479
5.054,0.0523469115418942
5.056,0.0436145721538932
5.058,0.0349589980668937
5.06,0.0268867700897307
5.062,0.0199134529858649
5.064,0.0145372349964884
5.066,0.0108566443506153
5.068,0.00857054926508249
5.07,0.00736044143445785
5.072,0.00690781255330947
5.074,0.00689415431620538
5.076,0.00700095841771364
5.078,0.00691791906911415
5.08,0.0065233883660587
5.082,0.00588437628857097
5.084,0.00507609533338665
5.086,0.00417375799724118
5.088,0.00325257677687024
5.09,0.00238776416900932
5.092,0
5.094,0
5.096,0
5.098,0
5.1,0
5.102,0
5.104,0
5.106,0
5.108,0
5.11,0
5.112,0
5.114,0
5.116,0
5.118,0
5.12,0
5.122,0
5.124,0
5.126,0
5.128,0
5.13,0
5.132,0
5.134,0
5.136,0
5.138,0
5.14,0
5.142,0
5.144,0
5.146,0
5.148,0
5.15,0
5.152,0
5.154,0
5.156,0
5.158,0
5.16,0
5.162,0
5.164,0
5.166,0
5.168,0
5.17,0
5.172,0
5.174,0
5.176,0
5.178,0
5.18,0
5.182,0
5.184,0
5.186,0
5.188,0
5.19,0
5.192,0
5.194,0
5.196,0
5.198,0
5.2,0
5.202,0
5.204,0
5.206,0
5.208,0
5.21,0
5.212,0
5.214,0
5.216,0
5.218,0
5.22,0
5.222,0
5.224,0
5.226,0
5.228,0
5.23,0
5.232,0
5.234,0
5.236,0
5.238,0
5.24,0
5.242,0
5.244,0
5.246,0
5.248,0
5.25,0
5.252,0
5.254,0
5.256,0
5.258,0
5.26,0
5.262,0
5.264,0
5.266,0
5.268,0
5.27,0
5.272,0
5.274,0
5.276,0
5.278,0
5.28,0
5.282,0
5.284,0
5.286,0
5.288,0
5.29,0
5.292,0
5.294,0
5.296,0
5.298,0
5.3,0
5.302,0
5.304,0
5.306,0
5.308,0
5.31,0
5.312,0
5.314,0
5.316,0
5.318,0
5.32,0
5.322,0
5.324,0
5.326,0
5.328,0
5.33,0
5.332,0
5.334,0
5.336,0
5.338,0
5.34,0
5.342,0
5.344,0
5.346,0
5.348,0
5.35,0
5.352,0
5.354,0
5.356,0
5.358,0
5.36,0
5.362,0
5.364,0
5.366,0
5.368,0
5.37,0
5.372,0
5.374,0
5.376,0
5.378,0
5.38,0
5.382,0
5.384,0
5.386,0
5.388,0
5.39,0
5.392,0
5.394,0
5.396,0
5.398,0
5.4,0
5.402,0
5.404,0
5.406,0
5.408,0
5.41,0
5.412,0
5.414,0
5.416,0
5.418,0
5.42,0
5.422,0
5.424,0
5.426,0
5.428,0
5.43,0
5.432,0
5.434,0
5.436,0
5.438,0
5.44,0
5.442,0
5.444,0
5.446,0
5.448,0
5.45,0
5.452,0
5.454,0
5.456,0
5.458,0
5.46,0
5.462,0
5.464,0
5.466,0
5.468,0
5.47,0
5.472,0
5.474,0
5.476,0
5.478,0
5.48,0
5.482,0
5.484,0
5.486,0
5.488,0
5.49,0
5.492,0
5.494,0
5.496,0
5.498,0
5.5,0
5.502,0
5.504,0
5.506,0
5.508,0
5.51,0
5.512,0
5.514,0
5.516,0
5.518,0
5.52,0
5.522,0
5.524,0
5.526,0
5.528,0
5.53,0
5.532,0
5.534,0
5.536,0
5.538,0
5.54,0
5.542,0
5.544,0
5.546,0
5.548,0
5.55,0
5.552,0
5.554,0
5.556,0
5.558,0
5.56,0
5.562,0
5.564,0
5.566,0
5.568,0
5.57,0
5.572,0
5.574,0
5.576,0
5.578,0
5.58,0
5.582,0
5.584,0
5.586,0
5.588,0
5.59,0
5.592,0
5.594,0
5.596,0
5.598,0
5.6,0
5.602,0
5.604,0
5.606,0
5.608,0
5.61,0
5.612,0
5.614,0
5.616,0
5.618,0
5.62,0
5.622,0
5.624,0
5.626,0
5.628,0
5.63,0
5.632,0
5.634,0
5.636,0
5.638,0
5.64,0
5.642,0
5.644,0
5.646,0
5.648,0
5.65,0
5.652,0
5.654,0
5.656,0
5.658,0
5.66,0
5.662,0
5.664,0
5.666,0
5.668,0
5.67,0
5.672,0
5.674,0
5.676,0
5.678,0
5.68,0
5.682,0
5.684,0
5.686,0
5.688,0
5.69,0
5.692,0
5.694,0
5.696,0
5.698,0
5.7,0
5.702,0
5.704,0
5.706,0
5.708,0
5.71,0
5.712,0
5.714,0
5.716,0
5.718,0
5.72,0
5.722,0
5.724,0
5.726,0
5.728,0
5.73,0
5.732,0
5.734,0
5.736,0
5.738,0
5.74,0
5.742,0
5.744,0
5.746,0
5.748,0
5.75,0
5.752,0
5.754,0
5.756,0
5.758,0
5.76,0
5.762,0
5.764,0
5.766,0
5.768,0
5.77,0
5.772,0
5.774,0
5.776,0
5.778,0
5.78,0
5.782,0
5.784,0
5.786,0
5.788,0
5.79,0
5.792,0
5.794,0
5.796,0
5.798,0
5.8,0
5.802,0
5.804,0
5.806,0
5.808,0
5.81,0
5.812,0
5.814,0
5.816,0
5.818,0
5.82,0
5.822,0
5.824,0
5.826,0
5.828,0
5.83,0
5.832,0
5.834,0
5.836,0
5.838,0
5.84,0
5.842,0
5.844,0
5.846,0
5.848,0
5.85,0
5.852,0
5.854,0
5.856,0
5.858,0
5.86,0
5.862,0
5.864,0
5.866,0
5.868,0
5.87,0
5.872,0
5.874,0
5.876,0
5.878,0
5.88,0
5.882,0
5.884,0
5.886,0
5.888,0
5.89,0
5.892,0
5.894,0
5.896,0
5.898,0
5.9,0
5.902,0
5.904,0
5.906,0
5.908,0
5.91,0
5.912,0
5.914,0
5.916,0
5.918,0
5.92,0
5.922,0
5.924,0
5.926,0
5.928,0
5.93,0
5.932,0
5.934,0
5.936,0
5.938,0
5.94,0
5.942,0
5.944,0
5.946,0
5.948,0
5.95,0
5.952,0
5.954,0
5.956,0
5.958,0
5.96,0
5.962,0
5.964,0
5.966,0
5.968,0
5.97,0
5.972,0
5.974,0
5.976,0
5.978,0
5.98,0
5.982,0
5.984,0
5.986,0
5.988,0
5.99,0
5.992,0
5.994,0
5.996,0
5.998,0
6,0
6.002,0
6.004,0
6.006,0
6.008,0
6.01,0
6.012,0
6.014,0
6.016,0
6.018,0
6.02,0
6.022,0
6.024,0
6.026,0
6.028,0
6.03,0
6.032,0
6.034,0
6.036,0
6.038,0
6.04,0
6.042,0
6.044,0
6.046,0
6.048,0
6.05,0
6.052,0
6.054,0
6.056,0
6.058,0
6.06,0
6.062,0
6.064,0
6.066,0
6.068,0
6.07,0
6.072,0
6.074,0
6.076,0
6.078,0
6.08,0
6.082,0
6.084,0
6.086,0
6.088,0
6.09,0
6.092,0
6.094,0
6.096,0
6.098,0
6.1,0
6.102,0
6.104,0
6.106,0
6.108,0
6.11,0
6.112,0
6.114,0
6.116,0
6.118,0
6.12,0
6.122,0
6.124,0
6.126,0
6.128,0
6.13,0
6.132,0
6.134,0
6.136,0
6.138,0
6.14,0
6.142,0
6.144,0
6.146,0
6.148,0
6.15,0
6.152,0
6.154,0
6.156,0
6.158,0
6.16,0
6.162,0
6.164,0
6.166,0
6.168,0
6.17,0
6.172,-0.00708460711772357
6.174,-0.00875867789606505
6.176,-0.0097707094803553
6.178,-0.0100503433721833
6.18,-0.0095272210731378
6.182,-0.00813098408480784
6.184,-0.00579127390878231
6.186,-0.00243773204665004
6.188,0.002
6.19,0.00759228072957896
6.192,0.0144094686404979
6.194,0.0225219222311678
6.196,0.032
6.198,0.0426795580987543
6.2,0.0534584432925861
6.202,0.063
6.204,0.0703086533523926
6.206,0.0757531513327301
6.208,0.0800433226368714
6.21,0.0838889959606751
6.212,0.088
6.214,0.0928813623772117
6.216,0.0982189064207034
6.218,0.103493654385375
6.22,0.108186628526127
6.222,0.11177885109786
6.224,0.113769020525728
6.226,0.114062387150768
6.228,0.112970753229892
6.23,0.11082359719027
6.232,0.107950397459071
6.234,0.104680632463465
6.236,0.101322448742521
6.238,0.0976933594089958
6.24,0.0931202441493368
6.242,0.0869086507618899
6.244,0.0783641270450015
6.246,0.0668822379065784
6.248,0.0539289417744214
6.25,0.0429403503473251
6.252,0.0351370667089276
6.254,0.02943416821815
6.256,0.0246658413406259
6.258,0.0201113077210971
6.26,0.0154948241834132
6.262,0.010559996907037
6.264,0.00505043207143152
6.266,-0.00126930799882813
6.268,-0.00815266964158817
6.27,-0.0148711078571161
6.272,-0.0206751215005672
6.274,-0.0248404509021935
6.276,-0.0272233903194679
6.278,-0.0282607879370846
6.28,-0.0284147334148342
6.282,-0.0281473164125075
6.284,-0.0279110227506538
6.286,-0.0279374499472761
6.288,-0.0282373072178306
6.29,-0.0288116999385322
6.292,-0.0296617334855958
6.294,-0.0307885132352366
6.296,-0.0321931445636694
6.298,-0.0338708461454447
6.3,-0.0356814425168278
6.302,-0.0373493640757983
6.304,-0.0385931545186718
6.306,-0.0391313575417635
6.308,-0.0386825168413888
6.31,-0.0369941879126011
6.312,-0.0344811976214325
6.314,-0.0322256442048932
6.316,-0.0313386376987318
6.318,-0.0329312881386968
6.32,-0.0381147055605367
6.322,-0.048
6.324,-0.0626784974835354
6.326,-0.0781623880003917
6.328,-0.0894440775305174
6.33,-0.0915159720538615
6.332,-0.0793704775503728
6.334,-0.048
6.336,0.00787945198275486
6.338,0.0946574592451774
6.34,0.219
6.342,0.381817728105234
6.344,0.561000000000002
6.346,0.731376282654542
6.348,0.878557782582414
6.35,0.990851141183019
6.352,1.05656299985575
6.354,1.064
6.356,1.00488859171392
6.358,0.884634459890632
6.36,0.712063098122032
6.362,0.496
6.364,0.254558087983522
6.366,0.043
6.368,-0.0893680600355242
6.37,-0.154215339725855
6.372,-0.178454949553258
6.374,-0.189
6.376,-0.207222774035877
6.378,-0.232332244580807
6.38,-0.257996557042236
6.382,-0.277883856827612
6.384,-0.285662289344385
6.386,-0.275
6.388,-0.243436904532212
6.39,-0.204
6.392,-0.169825574630218
6.394,-0.139
6.396,-0.107510796946915
6.398,-0.078
6.4,-0.0537956915439227
6.402,-0.0343156316944211
6.404,-0.018
6.406,-0.00368003270056166
6.408,0.00824880719840165
6.41,0.0170000000000001
6.412,0.0220597302817335
6.414,0.024004999718662
6.416,0.0236855142602354
6.418,0.0219509798559031
6.42,0.0196511024551151
6.422,0.0176355880073211
6.424,0.0167297140094783
6.426,0.0171969035512132
6.428,0.0187387253148218
6.43,0.0210323195301075
6.432,0.0237548264268736
6.434,0.0265833862349236
6.436,0.0291951391840608
6.438,0.0312672255040886
6.44,0.0324905874761291
6.442,0.0328736145616375
6.444,0.0327421434024014
6.446,0.0324358126915276
6.448,0.0322942611221227
6.45,0.0326571273872933
6.452,0.033864050180146
6.454,0.0362546681937876
6.456,0.0401436841055604
6.458,0.0452722722302258
6.46,0.0508080785199653
6.462,0.0558938129111955
6.464,0.0596998208139116
6.466,0.0620320635304039
6.468,0.0633321182552582
6.47,0.0640691976566383
6.472,0.0647125144027081
6.474,0.0657312811616315
6.476,0.0675947106015724
6.478,0.0707720153906946
6.48,0.075707707542456
6.482,0.0822781840120751
6.484,0.0897917266965311
6.486,0.0975319168380971
6.488,0.104782335679046
6.49,0.110850674447582
6.492,0.115599154048302
6.494,0.119444525062197
6.496,0.122827648056189
6.498,0.1261893835972
6.5,0.129961074483104
6.502,0.134355154823714
6.504,0.139365150040776
6.506,0.144975067786991
6.508,0.151180214652303
6.51,0.15823577278326
6.512,0.166656799883013
6.514,0.176969652591957
6.516,0.189615019787096
6.518,0.203063231787402
6.52,0.213945376139752
6.522,0.221822535704069
6.524,0.229271456416719
6.526,0.239
6.528,0.252792250946704
6.53,0.268737184831612
6.532,0.284
6.534,0.296733016402373
6.536,0.309037040410155
6.538,0.324
6.54,0.3435530184195
6.542,0.365
6.544,0.38471751296214
6.546,0.4
6.548,0.409951929731939
6.55,0.42
6.552,0.434849768110105
6.554,0.45
6.556,0.460110519769421
6.558,0.465692175534234
6.56,0.468718571414336
6.562,0.471163311529625
6.564,0.475
6.566,0.481537130450361
6.568,0.489422754525623
6.57,0.496639813375705
6.572,0.501171248150525
6.574,0.501
6.576,0.494957174166807
6.578,0.485266532264652
6.58,0.475
6.582,0.466376167431725
6.584,0.458200282028347
6.586,0.448424255610795
6.588,0.435
6.59,0.416718057527356
6.592,0.395723492566117
6.594,0.375
6.596,0.356409315249406
6.598,0.337325335881468
6.6,0.314
6.602,0.284481119319851
6.604,0.254
6.606,0.227801351245305
6.608,0.204
6.61,0.180063475698928
6.612,0.158
6.614,0.14025968249682
6.616,0.12651949230269
6.618,0.115763113410835
6.62,0.106974229814481
6.622,0.0991530840322818
6.624,0.0916807646677251
6.626,0.084319206409132
6.628,0.0768469024702515
6.63,0.0690487177674925
6.632,0.0608560663784479
6.634,0.0523469115418942
6.636,0.0436145721538932
6.638,0.0349589980668937
6.64,0.0268867700897307
6.642,0.0199134529858649
6.644,0.0145372349964884
6.646,0.0108566443506153
6.648,0.00857054926508249
6.65,0.00736044143445785
6.652,0.00690781255330947
6.654,0.00689415431620538
6.656,0.00700095841771364
6.658,0.00691791906911415
6.66,0.0065233883660587
6.662,0.00588437628857097
6.664,0.00507609533338665
6.666,0.00417375799724118
6.668,0.00325257677687024
6.67,0.00238776416900932
6.672,0
6.674,0
6.676,0
6.678,0
6.68,0
6.682,0
6.684,0
6.686,0
6.688,0
6.69,0
6.692,0
6.694,0
6.696,0
6.698,0
6.7,0
6.702,0
6.704,0
6.706,0
6.708,0
6.71,0
6.712,0
6.714,0
6.716,0
6.718,0
6.72,0
6.722,0
6.724,0
6.726,0
6.728,0
6.73,0
6.732,0
6.734,0
6.736,0
6.738,0
6.74,0
6.742,0
6.744,0
6.746,0
6.748,0
6.75,0
6.752,0
6.754,0
6.756,0
6.758,0
6.76,0
6.762,0
6.764,0
6.766,0
6.768,0
6.77,0
6.772,0
6.774,0
6.776,0
6.778,0
6.78,0
6.782,0
6.784,0
6.786,0
6.788,0
6.79,0
6.792,0
6.794,0
6.796,0
6.798,0
6.8,0
6.802,0
6.804,0
6.806,0
6.808,0
6.81,0
6.812,0
6.814,0
6.816,0
6.818,0
6.82,0
6.822,0
6.824,0
6.826,0
6.828,0
6.83,0
6.832,0
6.834,0
6.836,0
6.838,0
6.84,0
6.842,0
6.844,0
6.846,0
6.848,0
6.85,0
6.852,0
6.854,0
6.856,0
6.858,0
6.86,0
6.862,0
6.864,0
6.866,0
6.868,0
6.87,0
6.872,0
6.874,0
6.876,0
6.878,0
6.88,0
6.882,0
6.884,0
6.886,0
6.888,0
6.89,0
6.892,0
6.894,0
6.896,0
6.898,0
6.9,0
6.902,0
6.904,0
6.906,0
6.908,0
6.91,0
6.912,0
6.914,0
6.916,0
6.918,0
6.92,0
6.922,0
6.924,0
6.926,0
6.928,0
6.93,0
6.932,0
6.934,0
6.936,0
6.938,0
6.94,0
6.942,0
6.944,0
6.946,0
6.948,0
6.95,0
6.952,0
6.954,0
6.956,0
6.958,0
6.96,0
6.962,0
6.964,0
6.966,0
6.968,0
6.97,0
6.972,0
6.974,0
6.976,0
6.978,0
6.98,0
6.982,0
6.984,0
6.986,0
6.988,0
6.99,0
6.992,0
6.994,0
6.996,0
6.998,0
7,0
7.002,0
7.004,0
7.006,0
7.008,0
7.01,0
7.012,0
7.014,0
7.016,0
7.018,0
7.02,0
7.022,0
7.024,0
7.026,0
7.028,0
7.03,0
7.032,0
7.034,0
7.036,0
7.038,0
7.04,0
7.042,0
7.044,0
7.046,0
7.048,0
7.05,0
7.052,0
7.054,0
7.056,0
7.058,0
7.06,0
7.062,0
7.064,0
7.066,0
7.068,0
7.07,0
7.072,0
7.074,0
7.076,0
7.078,0
7.08,0
7.082,0
7.084,0
7.086,0
7.088,0
7.09,0
7.092,0
7.094,0
7.096,0
7.098,0
7.1,0
7.102,0
7.104,0
7.106,0
7.108,0
7.11,0
7.112,0
7.114,0
7.116,0
7.118,0
7.12,0
7.122,0
7.124,0
7.126,0
7.128,0
7.13,0
7.132,0
7.134,0
7.136,0
7.138,0
7.14,0
7.142,0
7.144,0
7.146,0
7.148,0
7.15,0
7.152,0
7.154,0
7.156,0
7.158,0
7.16,0
7.162,0
7.164,0
7.166,0
7.168,0
7.17,0
7.172,0
7.174,0
7.176,0
7.178,0
7.18,0
7.182,0
7.184,0
7.186,0
7.188,0
7.19,0
7.192,0
7.194,0
7.196,0
7.198,0
7.2,0
7.202,0
7.204,0
7.206,0
7.208,0
7.21,0
7.212,0
7.214,0
7.216,0
7.218,0
7.22,0
7.222,0
7.224,0
7.226,0
7.228,0
7.23,0
7.232,0
7.234,0
7.236,0
7.238,0
7.24,0
7.242,0
7.244,0
7.246,0
7.248,0
7.25,0
7.252,0
7.254,0
7.256,0
7.258,0
7.26,0
7.262,0
7.264,0
7.266,0
7.268,0
7.27,0
7.272,0
7.274,0
7.276,0
7.278,0
7.28,0
7.282,0
7.284,0
7.286,0
7.288,0
7.29,0
7.292,0
7.294,0
7.296,0
7.298,0
7.3,0
7.302,0
7.304,0
7.306,0
7.308,0
7.31,0
7.312,0
7.314,0
7.316,0
7.318,0
7.32,0
7.322,0
7.324,0
7.326,0
7.328,0
7.33,0
7.332,0
7.334,0
7.336,0
7.338,0
7.34,0
7.342,0
7.344,0
7.346,0
7.348,0
7.35,0
7.352,0
7.354,0
7.356,0
7.358,0
7.36,0
7.362,0
7.364,0
7.366,0
7.368,0
7.37,0
7.372,0
7.374,0
7.376,0
7.378,0
7.38,0
7.382,0
7.384,0
7.386,0
7.388,0
7.39,0
7.392,0
7.394,0
7.396,0
7.398,0
7.4,0
7.402,0
7.404,0
7.406,0
7.408,0
7.41,0
7.412,0
7.414,0
7.416,0
7.418,0
7.42,0
7.422,0
7.424,0
7.426,0
7.428,0
7.43,0
7.432,0
7.434,0
7.436,0
7.438,0
7.44,0
7.442,0
7.444,0
7.446,0
7.448,0
7.45,0
7.452,0
7.454,0
7.456,0
7.458,0
7.46,0
7.462,0
7.464,0
7.466,0
7.468,0
7.47,0
7.472,0
7.474,0
7.476,0
7.478,0
7.48,0
7.482,0
7.484,0
7.486,0
7.488,0
7.49,0
7.492,0
7.494,0
7.496,0
7.498,0
7.5,0
7.502,0
7.504,0
7.506,0
7.508,0
7.51,0
7.512,0
7.514,0
7.516,0
7.518,0
7.52,0
7.522,0
7.524,0
7.526,0
7.528,0
7.53,0
7.532,0
7.534,0
7.536,0
7.538,0
7.54,0
7.542,0
7.544,0
7.546,0
7.548,0
7.55,0
7.552,0
7.554,0
7.556,0
7.558,0
7.56,0
7.562,0
7.564,0
7.566,0
7.568,0
7.57,0
7.572,0
7.574,0
7.576,0
7.578,0
7.58,0
7.582,0
7.584,0
7.586,0
7.588,0
7.59,0
7.592,0
7.594,0
7.596,0
7.598,0
7.6,0
7.602,0
7.604,0
7.606,0
7.608,0
7.61,0
7.612,0
7.614,0
7.616,0
7.618,0
7.62,0
7.622,0
7.624,0
7.626,0
7.628,0
7.63,0
7.632,0
7.634,0
7.636,0
7.638,0
7.64,0
7.642,0
7.644,0
7.646,0
7.648,0
7.65,0
7.652,0
7.654,0
7.656,0
7.658,0
7.66,0
7.662,0
7.664,0
7.666,0
7.668,0
7.67,0
7.672,0
7.674,0
7.676,0
7.678,0
7.68,0
7.682,0
7.684,0
7.686,0
7.688,0
7.69,0
7.692,0
7.694,0
7.696,0
7.698,0
7.7,0
7.702,0
7.704,0
7.706,0
7.708,0
7.71,0
7.712,0
7.714,0
7.716,0
7.718,0
7.72,0
7.722,0
7.724,0
7.726,0
7.728,0
7.73,0
7.732,0
7.734,0
7.736,0
7.738,-0.00708460711772357
7.74,-0.00875867789606505
7.742,-0.0097707094803553
7.744,-0.0100503433721833
7.746,-0.0095272210731378
7.748,-0.00813098408480784
7.75,-0.00579127390878231
7.752,-0.00243773204665004
7.754,0.002
7.756,0.00759228072957896
7.758,0.0144094686404979
7.76,0.0225219222311678
7.762,0.032
7.764,0.0426795580987543
7.766,0.0534584432925861
7.768,0.063
7.77,0.0703086533523926
7.772,0.0757531513327301
7.774,0.0800433226368714
7.776,0.0838889959606751
7.778,0.088
7.78,0.0928813623772117
7.782,0.0982189064207034
7.784,0.103493654385375
7.786,0.108186628526127
7.788,0.11177885109786
7.79,0.113769020525728
7.792,0.114062387150768
7.794,0.112970753229892
7.796,0.11082359719027
7.798,0.107950397459071
7.8,0.104680632463465
7.802,0.101322448742521
7.804,0.0976933594089958
7.806,0.0931202441493368
7.808,0.0869086507618899
7.81,0.0783641270450015
7.812,0.0668822379065784
7.814,0.0539289417744214
7.816,0.0429403503473251
7.818,0.0351370667089276
7.82,0.02943416821815
7.822,0.0246658413406259
7.824,0.0201113077210971
7.826,0.0154948241834132
7.828,0.010559996907037
7.83,0.00505043207143152
7.832,-0.00126930799882813
7.834,-0.00815266964158817
7.836,-0.0148711078571161
7.838,-0.0206751215005672
7.84,-0.0248404509021935
7.842,-0.0272233903194679
7.844,-0.0282607879370846
7.846,-0.0284147334148342
7.848,-0.0281473164125075
7.85,-0.0279110227506538
7.852,-0.0279374499472761
7.854,-0.0282373072178306
7.856,-0.0288116999385322
7.858,-0.0296617334855958
7.86,-0.0307885132352366
7.862,-0.0321931445636694
7.864,-0.0338708461454447
7.866,-0.0356814425168278
7.868,-0.0373493640757983
7.87,-0.0385931545186718
7.872,-0.0391313575417635
7.874,-0.0386825168413888
7.876,-0.0369941879126011
7.878,-0.0344811976214325
7.88,-0.0322256442048932
7.882,-0.0313386376987318
7.884,-0.0329312881386968
7.886,-0.0381147055605367
7.888,-0.048
7.89,-0.0626784974835354
7.892,-0.0781623880003917
7.894,-0.0894440775305174
7.896,-0.0915159720538615
7.898,-0.0793704775503728
7.9,-0.048
7.902,0.00787945198275486
7.904,0.0946574592451774
7.906,0.219
7.908,0.381817728105234
7.91,0.561000000000002
7.912,0.731376282654542
7.914,0.878557782582414
7.916,0.990851141183019
7.918,1.05656299985575
7.92,1.064
7.922,1.00488859171392
7.924,0.884634459890632
7.926,0.712063098122032
7.928,0.496
7.93,0.254558087983522
7.932,0.043
7.934,-0.0893680600355242
7.936,-0.154215339725855
7.938,-0.178454949553258
7.94,-0.189
7.942,-0.207222774035877
7.944,-0.232332244580807
7.946,-0.257996557042236
7.948,-0.277883856827612
7.95,-0.285662289344385
7.952,-0.275
7.954,-0.243436904532212
7.956,-0.204
7.958,-0.169825574630218
7.96,-0.139
7.962,-0.107510796946915
7.964,-0.078
7.966,-0.0537956915439227
7.968,-0.0343156316944211
7.97,-0.018
7.972,-0.00368003270056166
7.974,0.00824880719840165
7.976,0.0170000000000001
7.978,0.0220597302817335
7.98,0.024004999718662
7.982,0.0236855142602354
7.984,0.0219509798559031
7.986,0.0196511024551151
7.988,0.0176355880073211
7.99,0.0167297140094783
7.992,0.0171969035512132
7.994,0.0187387253148218
7.996,0.0210323195301075
7.998,0.0237548264268736
8,0.0265833862349236
8.002,0.0291951391840608
8.004,0.0312672255040886
8.006,0.0324905874761291
8.008,0.0328736145616375
8.01,0.0327421434024014
8.012,0.0324358126915276
8.014,0.0322942611221227
8.016,0.0326571273872933
8.018,0.033864050180146
8.02,0.0362546681937876
8.022,0.0401436841055604
8.024,0.0452722722302258
8.026,0.0508080785199653
8.028,0.0558938129111955
8.03,0.0596998208139116
8.032,0.0620320635304039
8.034,0.0633321182552582
8.036,0.0640691976566383
8.038,0.0647125144027081
8.04,0.0657312811616315
8.042,0.0675947106015724
8.044,0.0707720153906946
8.046,0.075707707542456
8.048,0.0822781840120751
8.05,0.0897917266965311
8.052,0.0975319168380971
8.054,0.104782335679046
8.056,0.110850674447582
8.058,0.115599154048302
8.06,0.119444525062197
8.062,0.122827648056189
8.064,0.1261893835972
8.066,0.129961074483104
8.068,0.134355154823714
8.07,0.139365150040776
8.072,0.144975067786991
8.074,0.151180214652303
8.076,0.15823577278326
8.078,0.166656799883013
8.08,0.176969652591957
8.082,0.189615019787096
8.084,0.203063231787402
8.086,0.213945376139752
8.088,0.221822535704069
8.09,0.229271456416719
8.092,0.239
8.094,0.252792250946704
8.096,0.268737184831612
8.098,0.284
8.1,0.296733016402373
8.102,0.309037040410155
8.104,0.324
8.106,0.3435530184195
8.108,0.365
8.11,0.38471751296214
8.112,0.4
8.114,0.409951929731939
8.116,0.42
8.118,0.434849768110105
8.12,0.45
8.122,0.460110519769421
8.124,0.465692175534234
8.126,0.468718571414336
8.128,0.471163311529625
8.13,0.475
8.132,0.481537130450361
8.134,0.489422754525623
8.136,0.496639813375705
8.138,0.501171248150525
8.14,0.501
8.142,0.494957174166807
8.144,0.485266532264652
8.146,0.475
8.148,0.466376167431725
8.15,0.458200282028347
8.152,0.448424255610795
8.154,0.435
8.156,0.416718057527356
8.158,0.395723492566117
8.16,0.375
8.162,0.356409315249406
8.164,0.337325335881468
8.166,0.314
8.168,0.284481119319851
8.17,0.254
8.172,0.227801351245305
8.174,0.204
8.176,0.180063475698928
8.178,0.158
8.18,0.14025968249682
8.182,0.12651949230269
8.184,0.115763113410835
8.186,0.106974229814481
8.188,0.0991530840322818
8.19,0.0916807646677251
8.192,0.084319206409132
8.194,0.0768469024702515
8.196,0.0690487177674925
8.198,0.0608560663784479
8.2,0.0523469115418942
8.202,0.0436145721538932
8.204,0.0349589980668937
8.206,0.0268867700897307
8.208,0.0199134529858649
8.21,0.0145372349964884
8.212,0.0108566443506153
8.214,0.00857054926508249
8.216,0.00736044143445785
8.218,0.00690781255330947
8.22,0.00689415431620538
8.222,0.00700095841771364
8.224,0.00691791906911415
8.226,0.0065233883660587
8.228,0.00588437628857097
8.23,0.00507609533338665
8.232,0.00417375799724118
8.234,0.00325257677687024
8.236,0.00238776416900932
8.238,0
8.24,0
8.242,0
8.244,0
8.246,0
8.248,0
8.25,0
8.252,0
8.254,0
8.256,0
8.258,0
8.26,0
8.262,0
8.264,0
8.266,0
8.268,0
8.27,0
8.272,0
8.274,0
8.276,0
8.278,0
8.28,0
8.282,0
8.284,0
8.286,0
8.288,0
8.29,0
8.292,0
8.294,0
8.296,0
8.298,0
8.3,0
8.302,0
8.304,0
8.306,0
8.308,0
8.31,0
8.312,0
8.314,0
8.316,0
8.318,0
8.32,0
8.322,0
8.324,0
8.326,0
8.328,0
8.33,0
8.332,0
8.334,0
8.336,0
8.338,0
8.34,0
8.342,0
8.344,0
8.346,0
8.348,0
8.35,0
8.352,0
8.354,0
8.356,0
8.358,0
8.36,0
8.362,0
8.364,0
8.366,0
8.368,0
8.37,0
8.372,0
8.374,0
8.376,0
8.378,0
8.38,0
8.382,0
8.384,0
8.386,0
8.388,0
8.39,0
8.392,0
8.394,0
8.396,0
8.398,0
8.4,0
8.402,0
8.404,0
8.406,0
8.408,0
8.41,0
8.412,0
8.414,0
8.416,0
8.418,0
8.42,0
8.422,0
8.424,0
8.426,0
8.428,0
8.43,0
8.432,0
8.434,0
8.436,0
8.438,0
8.44,0
8.442,0
8.444,0
8.446,0
8.448,0
8.45,0
8.452,0
8.454,0
8.456,0
8.458,0
8.46,0
8.462,0
8.464,0
8.466,0
8.468,0
8.47,0
8.472,0
8.474,0
8.476,0
8.478,0
8.48,0
8.482,0
8.484,0
8.486,0
8.488,0
8.49,0
8.492,0
8.494,0
8.496,0
8.498,0
8.5,0
8.502,0
8.504,0
8.506,0
8.508,0
8.51,0
8.512,0
8.514,0
8.516,0
8.518,0
8.52,0
8.522,0
8.524,0
8.526,0
8.528,0
8.53,0
8.532,0
8.534,0
8.536,0
8.538,0
8.54,0
8.542,0
8.544,0
8.546,0
8.548,0
8.55,0
8.552,0
8.554,0
8.556,0
8.558,0
8.56,0
8.562,0
8.564,0
8.566,0
8.568,0
8.57,0
8.572,0
8.574,0
8.576,0
8.578,0
8.58,0
8.582,0
8.584,0
8.586,0
8.588,0
8.59,0
8.592,0
8.594,0
8.596,0
8.598,0
8.6,0
8.602,0
8.604,0
8.606,0
8.608,0
8.61,0
8.612,0
8.614,0
8.616,0
8.618,0
8.62,0
8.622,0
8.624,0
8.626,0
8.628,0
8.63,0
8.632,0
8.634,0
8.636,0
8.638,0
8.64,0
8.642,0
8.644,0
8.646,0
8.648,0
8.65,0
8.652,0
8.654,0
8.656,0
8.658,0
8.66,0
8.662,0
8.664,0
8.666,0
8.668,0
8.67,0
8.672,0
8.674,0
8.676,0
8.678,0
8.68,0
8.682,0
8.684,0
8.686,0
8.688,0
8.69,0
8.692,0
8.694,0
8.696,0
8.698,0
8.7,0
8.702,0
8.704,0
8.706,0
8.708,0
8.71,0
8.712,0
8.714,0
8.716,0
8.718,0
8.72,0
8.722,0
8.724,0
8.726,0
8.728,0
8.73,0
8.732,0
8.734,0
8.736,0
8.738,0
8.74,0
8.742,0
8.744,0
8.746,0
8.748,0
8.75,0
8.752,0
8.754,0
8.756,0
8.758,0
8.76,0
8.762,0
8.764,0
8.766,0
8.768,0
8.77,0
8.772,0
8.774,0
8.776,0
8.778,0
8.78,0
8.782,0
8.784,0
8.786,0
8.788,0
8.79,0
8.792,0
8.794,0
8.796,0
8.798,0
8.8,0
8.802,0
8.804,0
8.806,0
8.808,0
8.81,0
8.812,0
8.814,0
8.816,0
8.818,0
8.82,0
8.822,0
8.824,0
8.826,0
8.828,0
8.83,0
8.832,0
8.834,0
8.836,0
8.838,0
8.84,0
8.842,0
8.844,0
8.846,0
8.848,0
8.85,0
8.852,0
8.854,0
8.856,0
8.858,0
8.86,0
8.862,0
8.864,0
8.866,0
8.868,0
8.87,0
8.872,0
8.874,0
8.876,0
8.878,0
8.88,0
8.882,0
8.884,0
8.886,0
8.888,0
8.89,0
8.892,0
8.894,0
8.896,0
8.898,0
8.9,0
8.902,0
8.904,0
8.906,0
8.908,0
8.91,0
8.912,0
8.914,0
8.916,0
8.918,0
8.92,0
8.922,0
8.924,0
8.926,0
8.928,0
8.93,0
8.932,0
8.934,0
8.936,0
8.938,0
8.94,0
8.942,0
8.944,0
8.946,0
8.948,0
8.95,0
8.952,0
8.954,0
8.956,0
8.958,0
8.96,0
8.962,0
8.964,0
8.966,0
8.968,0
8.97,0
8.972,0
8.974,0
8.976,0
8.978,0
8.98,0
8.982,0
8.984,0
8.986,0
8.988,0
8.99,0
8.992,0
8.994,0
8.996,0
8.998,0
9,0
9.002,0
9.004,0
9.006,0
9.008,0
9.01,0
9.012,0
9.014,0
9.016,0
9.018,0
9.02,0
9.022,0
9.024,0
9.026,0
9.028,0
9.03,0
9.032,0
9.034,0
9.036,0
9.038,0
9.04,0
9.042,0
9.044,0
9.046,0
9.048,0
9.05,0
9.052,0
9.054,0
9.056,0
9.058,0
9.06,0
9.062,0
9.064,0
9.066,0
9.068,0
9.07,0
9.072,0
9.074,0
9.076,0
9.078,0
9.08,0
9.082,0
9.084,0
9.086,0
9.088,0
9.09,0
9.092,0
9.094,0
9.096,0
9.098,0
9.1,0
9.102,0
9.104,0
9.106,0
9.108,0
9.11,0
9.112,0
9.114,0
9.116,0
9.118,0
9.12,0
9.122,0
9.124,0
9.126,0
9.128,0
9.13,0
9.132,0
9.134,0
9.136,0
9.138,0
9.14,0
9.142,0
9.144,0
9.146,0
9.148,0
9.15,0
9.152,0
9.154,0
9.156,0
9.158,0
9.16,0
9.162,0
9.164,0
9.166,0
9.168,0
9.17,0
9.172,0
9.174,0
9.176,0
9.178,0
9.18,0
9.182,0
9.184,0
9.186,0
9.188,0
9.19,0
9.192,0
9.194,0
9.196,0
9.198,0
9.2,0
9.202,0
9.204,0
9.206,0
9.208,0
9.21,0
9.212,0
9.214,0
9.216,0
9.218,0
9.22,0
9.222,0
9.224,0
9.226,0
9.228,0
9.23,0
9.232,0
9.234,0
9.236,0
9.238,0
9.24,0
9.242,0
9.244,0
9.246,0
9.248,0
9.25,0
9.252,0
9.254,0
9.256,0
9.258,0
9.26,0
9.262,0
9.264,0
9.266,0
9.268,0
9.27,0
9.272,0
9.274,0
9.276,0
9.278,0
9.28,0
9.282,0
9.284,0
9.286,0
9.288,0
9.29,-0.00708460711772357
9.292,-0.00875867789606505
9.294,-0.0097707094803553
9.296,-0.0100503433721833
9.298,-0.0095272210731378
9.3,-0.00813098408480784
9.302,-0.00579127390878231
9.304,-0.00243773204665004
9.306,0.002
9.308,0.00759228072957896
9.31,0.0144094686404979
9.312,0.0225219222311678
9.314,0.032
9.316,0.0426795580987543
9.318,0.0534584432925861
9.32,0.063
9.322,0.0703086533523926
9.324,0.0757531513327301
9.326,0.0800433226368714
9.328,0.0838889959606751
9.33,0.088
9.332,0.0928813623772117
9.334,0.0982189064207034
9.336,0.103493654385375
9.338,0.108186628526127
9.34,0.11177885109786
9.342,0.113769020525728
9.344,0.114062387150768
9.346,0.112970753229892
9.348,0.11082359719027
9.35,0.107950397459071
9.352,0.104680632463465
9.354,0.101322448742521
9.356,0.0976933594089958
9.358,0.0931202441493368
9.36,0.0869086507618899
9.362,0.0783641270450015
9.364,0.0668822379065784
9.366,0.0539289417744214
9.368,0.0429403503473251
9.37,0.0351370667089276
9.372,0.02943416821815
9.374,0.0246658413406259
9.376,0.0201113077210971
9.378,0.0154948241834132
9.38,0.010559996907037
9.382,0.00505043207143152
9.384,-0.00126930799882813
9.386,-0.00815266964158817
9.388,-0.0148711078571161
9.39,-0.0206751215005672
9.392,-0.0248404509021935
9.394,-0.0272233903194679
9.396,-0.0282607879370846
9.398,-0.0284147334148342
9.4,-0.0281473164125075
9.402,-0.0279110227506538
9.404,-0.0279374499472761
9.406,-0.0282373072178306
9.408,-0.0288116999385322
9.41,-0.0296617334855958
9.412,-0.0307885132352366
9.414,-0.0321931445636694
9.416,-0.0338708461454447
9.418,-0.0356814425168278
9.42,-0.0373493640757983
9.422,-0.0385931545186718
9.424,-0.0391313575417635
9.426,-0.0386825168413888
9.428,-0.0369941879126011
9.43,-0.0344811976214325
9.432,-0.0322256442048932
9.434,-0.0313386376987318
9.436,-0.0329312881386968
9.438,-0.0381147055605367
9.44,-0.048
9.442,-0.0626784974835354
9.444,-0.0781623880003917
9.446,-0.0894440775305174
9.448,-0.0915159720538615
9.45,-0.0793704775503728
9.452,-0.048
9.454,0.00787945198275486
9.456,0.0946574592451774
9.458,0.219
9.46,0.381817728105234
9.462,0.561000000000002
9.464,0.731376282654542
9.466,0.878557782582414
9.468,0.990851141183019
9.47,1.05656299985575
9.472,1.064
9.474,1.00488859171392
9.476,0.884634459890632
9.478,0.712063098122032
9.48,0.496
9.482,0.254558087983522
9.484,0.043
9.486,-0.0893680600355242
9.488,-0.154215339725855
9.49,-0.178454949553258
9.492,-0.189
9.494,-0.207222774035877
9.496,-0.232332244580807
9.498,-0.257996557042236
9.5,-0.277883856827612
9.502,-0.285662289344385
9.504,-0.275
9.506,-0.243436904532212
9.508,-0.204
9.51,-0.169825574630218
9.512,-0.139
9.514,-0.107510796946915
9.516,-0.078
9.518,-0.0537956915439227
9.52,-0.0343156316944211
9.522,-0.018
9.524,-0.00368003270056166
9.526,0.00824880719840165
9.528,0.0170000000000001
9.53,0.0220597302817335
9.532,0.024004999718662
9.534,0.0236855142602354
9.536,0.0219509798559031
9.538,0.0196511024551151
9.54,0.0176355880073211
9.542,0.0167297140094783
9.544,0.0171969035512132
9.546,0.0187387253148218
9.548,0.0210323195301075
9.55,0.0237548264268736
9.552,0.0265833862349236
9.554,0.0291951391840608
9.556,0.0312672255040886
9.558,0.0324905874761291
9.56,0.0328736145616375
9.562,0.0327421434024014
9.564,0.0324358126915276
9.566,0.0322942611221227
9.568,0.0326571273872933
9.57,0.033864050180146
9.572,0.0362546681937876
9.574,0.0401436841055604
9.576,0.0452722722302258
9.578,0.0508080785199653
9.58,0.0558938129111955
9.582,0.0596998208139116
9.584,0.0620320635304039
9.586,0.0633321182552582
9.588,0.0640691976566383
9.59,0.0647125144027081
9.592,0.0657312811616315
9.594,0.0675947106015724
9.596,0.0707720153906946
9.598,0.075707707542456
9.6,0.0822781840120751
9.602,0.0897917266965311
9.604,0.0975319168380971
9.606,0.104782335679046
9.608,0.110850674447582
9.61,0.115599154048302
9.612,0.119444525062197
9.614,0.122827648056189
9.616,0.1261893835972
9.618,0.129961074483104
9.62,0.134355154823714
9.622,0.139365150040776
9.624,0.144975067786991
9.626,0.151180214652303
9.628,0.15823577278326
9.63,0.166656799883013
9.632,0.176969652591957
9.634,0.189615019787096
9.636,0.203063231787402
9.638,0.213945376139752
9.64,0.221822535704069
9.642,0.229271456416719
9.644,0.239
9.646,0.252792250946704
9.648,0.268737184831612
9.65,0.284
9.652,0.296733016402373
9.654,0.309037040410155
9.656,0.324
9.658,0.3435530184195
9.66,0.365
9.662,0.38471751296214
9.664,0.4
9.666,0.409951929731939
9.668,0.42
9.67,0.434849768110105
9.672,0.45
9.674,0.460110519769421
9.676,0.465692175534234
9.678,0.468718571414336
9.68,0.471163311529625
9.682,0.475
9.684,0.481537130450361
9.686,0.489422754525623
9.688,0.496639813375705
9.69,0.501171248150525
9.692,0.501
9.694,0.494957174166807
9.696,0.485266532264652
9.698,0.475
9.7,0.466376167431725
9.702,0.458200282028347
9.704,0.448424255610795
9.706,0.435
9.708,0.416718057527356
9.71,0.395723492566117
9.712,0.375
9.714,0.356409315249406
9.716,0.337325335881468
9.718,0.314
9.72,0.284481119319851
9.722,0.254
9.724,0.227801351245305
9.726,0.204
9.728,0.180063475698928
9.73,0.158
9.732,0.14025968249682
9.734,0.12651949230269
9.736,0.115763113410835
9.738,0.106974229814481
9.74,0.0991530840322818
9.742,0.0916807646677251
9.744,0.084319206409132
9.746,0.0768469024702515
9.748,0.0690487177674925
9.75,0.0608560663784479
9.752,0.0523469115418942
9.754,0.0436145721538932
9.756,0.0349589980668937
9.758,0.0268867700897307
9.76,0.0199134529858649
9.762,0.0145372349964884
9.764,0.0108566443506153
9.766,0.00857054926508249
9.768,0.00736044143445785
9.77,0.00690781255330947
9.772,0.00689415431620538
9.774,0.00700095841771364
9.776,0.00691791906911415
9.778,0.0065233883660587
9.78,0.00588437628857097
9.782,0.00507609533338665
9.784,0.00417375799724118
9.786,0.00325257677687024
9.788,0.00238776416900932
9.79,0
9.792,0
9.794,0
9.796,0
9.798,0
9.8,0
9.802,0
9.804,0
9.806,0
9.808,0
9.81,0
9.812,0
9.814,0
9.816,0
9.818,0
9.82,0
9.822,0
9.824,0
9.826,0
9.828,0
9.83,0
9.832,0
9.834,0
9.836,0
9.838,0
9.84,0
9.842,0
9.844,0
9.846,0
9.848,0
9.85,0
9.852,0
9.854,0
9.856,0
9.858,0
9.86,0
9.862,0
9.864,0
9.866,0
9.868,0
9.87,0
9.872,0
9.874,0
9.876,0
9.878,0
9.88,0
9.882,0
9.884,0
9.886,0
9.888,0
9.89,0
9.892,0
9.894,0
9.896,0
9.898,0
9.9,0
9.902,0
9.904,0
9.906,0
9.908,0
9.91,0
9.912,0
9.914,0
9.916,0
9.918,0
9.92,0
9.922,0
9.924,0
9.926,0
9.928,0
9.93,0
9.932,0
9.934,0
9.936,0
9.938,0
9.94,0
9.942,0
9.944,0
9.946,0
9.948,0
9.95,0
9.952,0
9.954,0
9.956,0
9.958,0
9.96,0
9.962,0
9.964,0
9.966,0
9.968,0
9.97,0
9.972,0
9.974,0
9.976,0
9.978,0
9.98,0
9.982,0
9.984,0
9.986,0
9.988,0
9.99,0
9.992,0
9.994,0
9.996,0
9.998,0
10,0
10.002,0
10.004,0
10.006,0
10.008,0
10.01,0
10.012,0
10.014,0
10.016,0
10.018,0
10.02,0
10.022,0
10.024,0
10.026,0
10.028,0
10.03,0
10.032,0
10.034,0
10.036,0
10.038,0
10.04,0
10.042,0
10.044,0
10.046,0
10.048,0
10.05,0
10.052,0
10.054,0
10.056,0
10.058,0
10.06,0
10.062,0
10.064,0
10.066,0
10.068,0
10.07,0
10.072,0
10.074,0
10.076,0
10.078,0
10.08,0
10.082,0
10.084,0
10.086,0
10.088,0
10.09,0
10.092,0
10.094,0
10.096,0
10.098,0
10.1,0
10.102,0
10.104,0
10.106,0
10.108,0
10.11,0
10.112,0
10.114,0
10.116,0
10.118,0
10.12,0
10.122,0
10.124,0
10.126,0
10.128,0
10.13,0
10.132,0
10.134,0
10.136,0
10.138,0
10.14,0
10.142,0
10.144,0
10.146,0
10.148,0
10.15,0
10.152,0
10.154,0
10.156,0
10.158,0
10.16,0
10.162,0
10.164,0
10.166,0
10.168,0
10.17,0
10.172,0
10.174,0
10.176,0
10.178,0
10.18,0
10.182,0
10.184,0
10.186,0
10.188,0
10.19,0
10.192,0
10.194,0
10.196,0
10.198,0
10.2,0
10.202,0
10.204,0
10.206,0
10.208,0
10.21,0
10.212,0
10.214,0
10.216,0
10.218,0
10.22,0
10.222,0
10.224,0
10.226,0
10.228,0
10.23,0
10.232,0
10.234,0
10.236,0
10.238,0
10.24,0
10.242,0
10.244,0
10.246,0
10.248,0
10.25,0
10.252,0
10.254,0
10.256,0
10.258,0
10.26,0
10.262,0
10.264,0
10.266,0
10.268,0
10.27,0
10.272,0
10.274,0
10.276,0
10.278,0
10.28,0
10.282,0
10.284,0
10.286,0
10.288,0
10.29,0
10.292,0
10.294,0
10.296,0
10.298,0
10.3,0
10.302,0
10.304,0
10.306,0
10.308,0
10.31,0
10.312,0
10.314,0
10.316,0
10.318,0
10.32,0
10.322,0
10.324,0
10.326,0
10.328,0
10.33,0
10.332,0
10.334,0
10.336,0
10.338,0
10.34,0
10.342,0
10.344,0
10.346,0
10.348,0
10.35,0
10.352,0
10.354,0
10.356,0
10.358,0
10.36,0
10.362,0
10.364,0
10.366,0
10.368,0
10.37,0
10.372,0
10.374,0
10.376,0
10.378,0
10.38,0
10.382,0
10.384,0
10.386,0
10.388,0
10.39,0
10.392,0
10.394,0
10.396,0
10.398,0
10.4,0
10.402,0
10.404,0
10.406,0
10.408,0
10.41,0
10.412,0
10.414,0
10.416,0
10.418,0
10.42,0
10.422,0
10.424,0
10.426,0
10.428,0
10.43,0
10.432,0
10.434,0
10.436,0
10.438,0
10.44,0
10.442,0
10.444,0
10.446,0
10.448,0
10.45,0
10.452,0
10.454,0
10.456,0
10.458,0
10.46,0
10.462,0
10.464,0
10.466,0
10.468,0
10.47,0
10.472,0
10.474,0
10.476,0
10.478,0
10.48,0
10.482,0
10.484,0
10.486,0
10.488,0
10.49,0
10.492,0
10.494,0
10.496,0
10.498,0
10.5,0
10.502,0
10.504,0
10.506,0
10.508,0
10.51,0
10.512,0
10.514,0
10.516,0
10.518,0
10.52,0
10.522,0
10.524,0
10.526,0
10.528,0
10.53,0
10.532,0
10.534,0
10.536,0
10.538,0
10.54,0
10.542,0
10.544,0
10.546,0
10.548,0
10.55,0
10.552,0
10.554,0
10.556,0
10.558,0
10.56,0
10.562,0
10.564,0
10.566,0
10.568,0
10.57,0
10.572,0
10.574,0
10.576,0
10.578,0
10.58,0
10.582,0
10.584,0
10.586,0
10.588,0
10.59,0
10.592,0
10.594,0
10.596,0
10.598,0
10.6,0
10.602,0
10.604,0
10.606,0
10.608,0
10.61,0
10.612,0
10.614,0
10.616,0
10.618,0
10.62,0
10.622,0
10.624,0
10.626,0
10.628,0
10.63,0
10.632,0
10.634,0
10.636,0
10.638,0
10.64,0
10.642,0
10.644,0
10.646,0
10.648,0
10.65,0
10.652,0
10.654,0
10.656,0
10.658,0
10.66,0
10.662,0
10.664,0
10.666,0
10.668,0
10.67,0
10.672,0
10.674,0
10.676,0
10.678,0
10.68,0
10.682,0
10.684,0
10.686,0
10.688,0
10.69,0
10.692,0
10.694,0
10.696,0
10.698,0
10.7,0
10.702,0
10.704,0
10.706,0
10.708,0
10.71,0
10.712,0
10.714,0
10.716,0
10.718,0
10.72,0
10.722,0
10.724,0
10.726,0
10.728,0
10.73,0
10.732,0
10.734,0
10.736,0
10.738,0
10.74,0
10.742,0
10.744,0
10.746,0
10.748,0
10.75,0
10.752,0
10.754,0
10.756,0
10.758,0
10.76,0
10.762,0
10.764,0
10.766,0
10.768,0
10.77,0
10.772,0
10.774,0
10.776,0
10.778,0
10.78,0
10.782,0
10.784,0
10.786,0
10.788,0
10.79,0
10.792,0
10.794,0
10.796,0
10.798,0
10.8,0
10.802,0
10.804,0
10.806,0
10.808,0
10.81,0
10.812,0
10.814,0
10.816,0
10.818,0
10.82,0
10.822,0
10.824,0
10.826,0
10.828,0
10.83,-0.00708460711772357
10.832,-0.00875867789606505
10.834,-0.0097707094803553
10.836,-0.0100503433721833
10.838,-0.0095272210731378
10.84,-0.00813098408480784
10.842,-0.00579127390878231
10.844,-0.00243773204665004
10.846,0.002
10.848,0.00759228072957896
10.85,0.0144094686404979
10.852,0.0225219222311678
10.854,0.032
10.856,0.0426795580987543
10.858,0.0534584432925861
10.86,0.063
10.862,0.0703086533523926
10.864,0.0757531513327301
10.866,0.0800433226368714
10.868,0.0838889959606751
10.87,0.088
10.872,0.0928813623772117
10.874,0.0982189064207034
10.876,0.103493654385375
10.878,0.108186628526127
10.88,0.11177885109786
10.882,0.113769020525728
10.884,0.114062387150768
10.886,0.112970753229892
10.888,0.11082359719027
10.89,0.107950397459071
10.892,0.104680632463465
10.894,0.101322448742521
10.896,0.0976933594089958
10.898,0.0931202441493368
10.9,0.0869086507618899
10.902,0.0783641270450015
10.904,0.0668822379065784
10.906,0.0539289417744214
10.908,0.0429403503473251
10.91,0.0351370667089276
10.912,0.02943416821815
10.914,0.0246658413406259
10.916,0.0201113077210971
10.918,0.0154948241834132
10.92,0.010559996907037
10.922,0.00505043207143152
10.924,-0.00126930799882813
10.926,-0.00815266964158817
10.928,-0.0148711078571161
10.93,-0.0206751215005672
10.932,-0.0248404509021935
10.934,-0.0272233903194679
10.936,-0.0282607879370846
10.938,-0.0284147334148342
10.94,-0.0281473164125075
10.942,-0.0279110227506538
10.944,-0.0279374499472761
10.946,-0.0282373072178306
10.948,-0.0288116999385322
10.95,-0.0296617334855958
10.952,-0.0307885132352366
10.954,-0.0321931445636694
10.956,-0.0338708461454447
10.958,-0.0356814425168278
10.96,-0.0373493640757983
10.962,-0.0385931545186718
10.964,-0.0391313575417635
10.966,-0.0386825168413888
10.968,-0.0369941879126011
10.97,-0.0344811976214325
10.972,-0.0322256442048932
10.974,-0.0313386376987318
10.976,-0.0329312881386968
10.978,-0.0381147055605367
10.98,-0.048
10.982,-0.0626784974835354
10.984,-0.0781623880003917
10.986,-0.0894440775305174
10.988,-0.0915159720538615
10.99,-0.0793704775503728
10.992,-0.048
10.994,0.00787945198275486
10.996,0.0946574592451774
10.998,0.219
11,0.381817728105234
11.002,0.561000000000002
11.004,0.731376282654542
11.006,0.878557782582414
11.008,0.990851141183019
11.01,1.05656299985575
11.012,1.064
11.014,1.00488859171392
11.016,0.884634459890632
11.018,0.712063098122032
11.02,0.496
11.022,0.254558087983522
11.024,0.043
11.026,-0.0893680600355242
11.028,-0.154215339725855
11.03,-0.178454949553258
11.032,-0.189
11.034,-0.207222774035877
11.036,-0.232332244580807
11.038,-0.257996557042236
11.04,-0.277883856827612
11.042,-0.285662289344385
11.044,-0.275
11.046,-0.243436904532212
11.048,-0.204
11.05,-0.169825574630218
11.052,-0.139
11.054,-0.107510796946915
11.056,-0.078
11.058,-0.0537956915439227
11.06,-0.0343156316944211
11.062,-0.018
11.064,-0.00368003270056166
11.066,0.00824880719840165
11.068,0.0170000000000001
11.07,0.0220597302817335
11.072,0.024004999718662
11.074,0.0236855142602354
11.076,0.0219509798559031
11.078,0.0196511024551151
11.08,0.0176355880073211
11.082,0.0167297140094783
11.084,0.0171969035512132
11.086,0.0187387253148218
11.088,0.0210323195301075
11.09,0.0237548264268736
11.092,0.0265833862349236
11.094,0.0291951391840608
11.096,0.0312672255040886
11.098,0.0324905874761291
11.1,0.0328736145616375
11.102,0.0327421434024014
11.104,0.0324358126915276
11.106,0.0322942611221227
11.108,0.0326571273872933
11.11,0.033864050180146
11.112,0.0362546681937876
11.114,0.0401436841055604
11.116,0.0452722722302258
11.118,0.0508080785199653
11.12,0.0558938129111955
11.122,0.0596998208139116
11.124,0.0620320635304039
11.126,0.0633321182552582
11.128,0.0640691976566383
11.13,0.0647125144027081
11.132,0.0657312811616315
11.134,0.0675947106015724
11.136,0.0707720153906946
11.138,0.075707707542456
11.14,0.0822781840120751
11.142,0.0897917266965311
11.144,0.0975319168380971
11.146,0.104782335679046
11.148,0.110850674447582
11.15,0.115599154048302
11.152,0.119444525062197
11.154,0.122827648056189
11.156,0.1261893835972
11.158,0.129961074483104
11.16,0.134355154823714
11.162,0.139365150040776
11.164,0.144975067786991
11.166,0.151180214652303
11.168,0.15823577278326
11.17,0.166656799883013
11.172,0.176969652591957
11.174,0.189615019787096
11.176,0.203063231787402
11.178,0.213945376139752
11.18,0.221822535704069
11.182,0.229271456416719
11.184,0.239
11.186,0.252792250946704
11.188,0.268737184831612
11.19,0.284
11.192,0.296733016402373
11.194,0.309037040410155
11.196,0.324
11.198,0.3435530184195
11.2,0.365
11.202,0.38471751296214
11.204,0.4
11.206,0.409951929731939
11.208,0.42
11.21,0.434849768110105
11.212,0.45
11.214,0.460110519769421
11.216,0.465692175534234
11.218,0.468718571414336
11.22,0.471163311529625
11.222,0.475
11.224,0.481537130450361
11.226,0.489422754525623
11.228,0.496639813375705
11.23,0.501171248150525
11.232,0.501
11.234,0.494957174166807
11.236,0.485266532264652
11.238,0.475
11.24,0.466376167431725
11.242,0.458200282028347
11.244,0.448424255610795
11.246,0.435
11.248,0.416718057527356
11.25,0.395723492566117
11.252,0.375
11.254,0.356409315249406
11.256,0.337325335881468
11.258,0.314
11.26,0.284481119319851
11.262,0.254
11.264,0.227801351245305
11.266,0.204
11.268,0.180063475698928
11.27,0.158
11.272,0.14025968249682
11.274,0.12651949230269
11.276,0.115763113410835
11.278,0.106974229814481
11.28,0.0991530840322818
11.282,0.0916807646677251
11.284,0.084319206409132
11.286,0.0768469024702515
11.288,0.0690487177674925
11.29,0.0608560663784479
11.292,0.0523469115418942
11.294,0.0436145721538932
11.296,0.0349589980668937
11.298,0.0268867700897307
11.3,0.0199134529858649
11.302,0.0145372349964884
11.304,0.0108566443506153
11.306,0.00857054926508249
11.308,0.00736044143445785
11.31,0.00690781255330947
11.312,0.00689415431620538
11.314,0.00700095841771364
11.316,0.00691791906911415
11.318,0.0065233883660587
11.32,0.00588437628857097
11.322,0.00507609533338665
11.324,0.00417375799724118
11.326,0.00325257677687024
11.328,0.00238776416900932
11.33,0
11.332,0
11.334,0
11.336,0
11.338,0
11.34,0
11.342,0
11.344,0
11.346,0
11.348,0
11.35,0
11.352,0
11.354,0
11.356,0
11.358,0
11.36,0
11.362,0
11.364,0
11.366,0
11.368,0
11.37,0
11.372,0
11.374,0
11.376,0
11.378,0
11.38,0
11.382,0
11.384,0
11.386,0
11.388,0
11.39,0
11.392,0
11.394,0
11.396,0
11.398,0
11.4,0
11.402,0
11.404,0
11.406,0
11.408,0
11.41,0
11.412,0
11.414,0
11.416,0
11.418,0
11.42,0
11.422,0
11.424,0
11.426,0
11.428,0
11.43,0
11.432,0
11.434,0
11.436,0
11.438,0
11.44,0
11.442,0
11.444,0
11.446,0
11.448,0
11.45,0
11.452,0
11.454,0
11.456,0
11.458,0
11.46,0
11.462,0
11.464,0
11.466,0
11.468,0
11.47,0
11.472,0
11.474,0
11.476,0
11.478,0
11.48,0
11.482,0
11.484,0
11.486,0
11.488,0
11.49,0
11.492,0
11.494,0
11.496,0
11.498,0
11.5,0
11.502,0
11.504,0
11.506,0
11.508,0
11.51,0
11.512,0
11.514,0
11.516,0
11.518,0
11.52,0
11.522,0
11.524,0
11.526,0
11.528,0
11.53,0
11.532,0
11.534,0
11.536,0
11.538,0
11.54,0
11.542,0
11.544,0
11.546,0
11.548,0
11.55,0
11.552,0
11.554,0
11.556,0
11.558,0
11.56,0
11.562,0
11.564,0
11.566,0
11.568,0
11.57,0
11.572,0
11.574,0
11.576,0
11.578,0
11.58,0
11.582,0
11.584,0
11.586,0
11.588,0
11.59,0
11.592,0
11.594,0
11.596,0
11.598,0
11.6,0
11.602,0
11.604,0
11.606,0
11.608,0
11.61,0
11.612,0
11.614,0
11.616,0
11.618,0
11.62,0
11.622,0
11.624,0
11.626,0
11.628,0
11.63,0
11.632,0
11.634,0
11.636,0
11.638,0
11.64,0
11.642,0
11.644,0
11.646,0
11.648,0
11.65,0
11.652,0
11.654,0
11.656,0
11.658,0
11.66,0
11.662,0
11.664,0
11.666,0
11.668,0
11.67,0
11.672,0
11.674,0
11.676,0
11.678,0
11.68,0
11.682,0
11.684,0
11.686,0
11.688,0
11.69,0
11.692,0
11.694,0
11.696,0
11.698,0
11.7,0
11.702,0
11.704,0
11.706,0
11.708,0
11.71,0
11.712,0
11.714,0
11.716,0
11.718,0
11.72,0
11.722,0
11.724,0
11.726,0
11.728,0
11.73,0
11.732,0
11.734,0
11.736,0
11.738,0
11.74,0
11.742,0
11.744,0
11.746,0
11.748,0
11.75,0
11.752,0
11.754,0
11.756,0
11.758,0
11.76,0
11.762,0
11.764,0
11.766,0
11.768,0
11.77,0
11.772,0
11.774,0
11.776,0
11.778,0
11.78,0
11.782,0
11.784,0
11.786,0
11.788,0
11.79,0
11.792,0
11.794,0
11.796,0
11.798,0
11.8,0
11.802,0
11.804,0
11.806,0
11.808,0
11.81,0
11.812,0
11.814,0
11.816,0
11.818,0
11.82,0
11.822,0
11.824,0
11.826,0
11.828,0
11.83,0
11.832,0
11.834,0
11.836,0
11.838,0
11.84,0
11.842,0
11.844,0
11.846,0
11.848,0
11.85,0
11.852,0
11.854,0
11.856,0
11.858,0
11.86,0
11.862,0
11.864,0
11.866,0
11.868,0
11.87,0
11.872,0
11.874,0
11.876,0
11.878,0
11.88,0
11.882,0
11.884,0
11.886,0
11.888,0
11.89,0
11.892,0
11.894,0
11.896,0
11.898,0
11.9,0
11.902,0
11.904,0
11.906,0
11.908,0
11.91,0
11.912,0
11.914,0
11.916,0
11.918,0
11.92,0
11.922,0
11.924,0
11.926,0
11.928,0
11.93,0
11.932,0
11.934,0
11.936,0
11.938,0
11.94,0
11.942,0
11.944,0
11.946,0
11.948,0
11.95,0
11.952,0
11.954,0
11.956,0
11.958,0
11.96,0
11.962,0
11.964,0
11.966,0
11.968,0
11.97,0
11.972,0
11.974,0
11.976,0
11.978,0
11.98,0
11.982,0
11.984,0
11.986,0
11.988,0
11.99,0
11.992,0
11.994,0
11.996,0
11.998,0
12,0
12.002,0
12.004,0
12.006,0
12.008,0
12.01,0
12.012,0
12.014,0
12.016,0
12.018,0
12.02,0
12.022,0
12.024,0
12.026,0
12.028,0
12.03,0
12.032,0
12.034,0
12.036,0
12.038,0
12.04,0
12.042,0
12.044,0
12.046,0
12.048,0
12.05,0
12.052,0
12.054,0
12.056,0
12.058,0
12.06,0
12.062,0
12.064,0
12.066,0
12.068,0
12.07,0
12.072,0
12.074,0
12.076,0
12.078,0
12.08,0
12.082,0
12.084,0
12.086,0
12.088,0
12.09,0
12.092,0
12.094,0
12.096,0
12.098,0
12.1,0
12.102,0
12.104,0
12.106,0
12.108,0
12.11,0
12.112,0
12.114,0
12.116,0
12.118,0
12.12,0
12.122,0
12.124,0
12.126,0
12.128,0
12.13,0
12.132,0
12.134,0
12.136,0
12.138,0
12.14,0
12.142,0
12.144,0
12.146,0
12.148,0
12.15,0
12.152,0
12.154,0
12.156,0
12.158,0
12.16,0
12.162,0
12.164,0
12.166,0
12.168,0
12.17,0
12.172,0
12.174,0
12.176,0
12.178,0
12.18,0
12.182,0
12.184,0
12.186,0
12.188,0
12.19,0
12.192,0
12.194,0
12.196,0
12.198,0
12.2,0
12.202,0
12.204,0
12.206,0
12.208,0
12.21,0
12.212,0
12.214,0
12.216,0
12.218,0
12.22,0
12.222,0
12.224,0
12.226,0
12.228,0
12.23,0
12.232,0
12.234,0
12.236,0
12.238,0
12.24,0
12.242,0
12.244,0
12.246,0
12.248,0
12.25,0
12.252,0
12.254,0
12.256,0
12.258,0
12.26,0
12.262,0
12.264,0
12.266,0
12.268,0
12.27,0
12.272,0
12.274,0
12.276,0
12.278,0
12.28,0
12.282,0
12.284,0
12.286,0
12.288,0
12.29,0
12.292,0
12.294,0
12.296,0
12.298,0
12.3,0
12.302,0
12.304,0
12.306,0
12.308,0
12.31,0
12.312,0
12.314,0
12.316,0
12.318,0
12.32,0
12.322,0
12.324,0
12.326,0
12.328,0
12.33,0
12.332,0
12.334,0
12.336,0
12.338,0
12.34,0
12.342,0
12.344,0
12.346,0
12.348,0
12.35,0
12.352,0
12.354,0
12.356,0
12.358,0
12.36,-0.00708460711772357
12.362,-0.00875867789606505
12.364,-0.0097707094803553
12.366,-0.0100503433721833
12.368,-0.0095272210731378
12.37,-0.00813098408480784
12.372,-0.00579127390878231
12.374,-0.00243773204665004
12.376,0.002
12.378,0.00759228072957896
12.38,0.0144094686404979
12.382,0.0225219222311678
12.384,0.032
12.386,0.0426795580987543
12.388,0.0534584432925861
12.39,0.063
12.392,0.0703086533523926
12.394,0.0757531513327301
12.396,0.0800433226368714
12.398,0.0838889959606751
12.4,0.088
12.402,0.0928813623772117
12.404,0.0982189064207034
12.406,0.103493654385375
12.408,0.108186628526127
12.41,0.11177885109786
12.412,0.113769020525728
12.414,0.114062387150768
12.416,0.112970753229892
12.418,0.11082359719027
12.42,0.107950397459071
12.422,0.104680632463465
12.424,0.101322448742521
12.426,0.0976933594089958
12.428,0.0931202441493368
12.43,0.0869086507618899
12.432,0.0783641270450015
12.434,0.0668822379065784
12.436,0.0539289417744214
12.438,0.0429403503473251
12.44,0.0351370667089276
12.442,0.02943416821815
12.444,0.0246658413406259
12.446,0.0201113077210971
12.448,0.0154948241834132
12.45,0.010559996907037
12.452,0.00505043207143152
12.454,-0.00126930799882813
12.456,-0.00815266964158817
12.458,-0.0148711078571161
12.46,-0.0206751215005672
12.462,-0.0248404509021935
12.464,-0.0272233903194679
12.466,-0.0282607879370846
12.468,-0.0284147334148342
12.47,-0.0281473164125075
12.472,-0.0279110227506538
12.474,-0.0279374499472761
12.476,-0.0282373072178306
12.478,-0.0288116999385322
12.48,-0.0296617334855958
12.482,-0.0307885132352366
12.484,-0.0321931445636694
12.486,-0.0338708461454447
12.488,-0.0356814425168278
12.49,-0.0373493640757983
12.492,-0.0385931545186718
12.494,-0.0391313575417635
12.496,-0.0386825168413888
12.498,-0.0369941879126011
12.5,-0.0344811976214325
12.502,-0.0322256442048932
12.504,-0.0313386376987318
12.506,-0.0329312881386968
12.508,-0.0381147055605367
12.51,-0.048
12.512,-0.0626784974835354
12.514,-0.0781623880003917
12.516,-0.0894440775305174
12.518,-0.0915159720538615
12.52,-0.0793704775503728
12.522,-0.048
12.524,0.00787945198275486
12.526,0.0946574592451774
12.528,0.219
12.53,0.381817728105234
12.532,0.561000000000002
12.534,0.731376282654542
12.536,0.878557782582414
12.538,0.990851141183019
12.54,1.05656299985575
12.542,1.064
12.544,1.00488859171392
12.546,0.884634459890632
12.548,0.712063098122032
12.55,0.496
12.552,0.254558087983522
12.554,0.043
12.556,-0.0893680600355242
12.558,-0.154215339725855
12.56,-0.178454949553258
12.562,-0.189
12.564,-0.207222774035877
12.566,-0.232332244580807
12.568,-0.257996557042236
12.57,-0.277883856827612
12.572,-0.285662289344385
12.574,-0.275
12.576,-0.243436904532212
12.578,-0.204
12.58,-0.169825574630218
12.582,-0.139
12.584,-0.107510796946915
12.586,-0.078
12.588,-0.0537956915439227
12.59,-0.0343156316944211
12.592,-0.018
12.594,-0.00368003270056166
12.596,0.00824880719840165
12.598,0.0170000000000001
12.6,0.0220597302817335
12.602,0.024004999718662
12.604,0.0236855142602354
12.606,0.0219509798559031
12.608,0.0196511024551151
12.61,0.0176355880073211
12.612,0.0167297140094783
12.614,0.0171969035512132
12.616,0.0187387253148218
12.618,0.0210323195301075
12.62,0.0237548264268736
12.622,0.0265833862349236
12.624,0.0291951391840608
12.626,0.0312672255040886
12.628,0.0324905874761291
12.63,0.0328736145616375
12.632,0.0327421434024014
12.634,0.0324358126915276
12.636,0.0322942611221227
12.638,0.0326571273872933
12.64,0.033864050180146
12.642,0.0362546681937876
12.644,0.0401436841055604
12.646,0.0452722722302258
12.648,0.0508080785199653
12.65,0.0558938129111955
12.652,0.0596998208139116
12.654,0.0620320635304039
12.656,0.0633321182552582
12.658,0.0640691976566383
12.66,0.0647125144027081
12.662,0.0657312811616315
12.664,0.0675947106015724
12.666,0.0707720153906946
12.668,0.075707707542456
12.67,0.0822781840120751
12.672,0.0897917266965311
12.674,0.0975319168380971
12.676,0.104782335679046
12.678,0.110850674447582
12.68,0.115599154048302
12.682,0.119444525062197
12.684,0.122827648056189
12.686,0.1261893835972
12.688,0.129961074483104
12.69,0.134355154823714
12.692,0.139365150040776
12.694,0.144975067786991
12.696,0.151180214652303
12.698,0.15823577278326
12.7,0.166656799883013
12.702,0.176969652591957
12.704,0.189615019787096
12.706,0.203063231787402
12.708,0.213945376139752
12.71,0.221822535704069
12.712,0.229271456416719
12.714,0.239
12.716,0.252792250946704
12.718,0.268737184831612
12.72,0.284
12.722,0.296733016402373
12.724,0.309037040410155
12.726,0.324
12.728,0.3435530184195
12.73,0.365
12.732,0.38471751296214
12.734,0.4
12.736,0.409951929731939
12.738,0.42
12.74,0.434849768110105
12.742,0.45
12.744,0.460110519769421
12.746,0.465692175534234
12.748,0.468718571414336
12.75,0.471163311529625
12.752,0.475
12.754,0.481537130450361
12.756,0.489422754525623
12.758,0.496639813375705
12.76,0.501171248150525
12.762,0.501
12.764,0.494957174166807
12.766,0.485266532264652
12.768,0.475
12.77,0.466376167431725
12.772,0.458200282028347
12.774,0.448424255610795
12.776,0.435
12.778,0.416718057527356
12.78,0.395723492566117
12.782,0.375
12.784,0.356409315249406
12.786,0.337325335881468
12.788,0.314
12.79,0.284481119319851
12.792,0.254
12.794,0.227801351245305
12.796,0.204
12.798,0.180063475698928
12.8,0.158
12.802,0.14025968249682
12.804,0.12651949230269
12.806,0.115763113410835
12.808,0.106974229814481
12.81,0.0991530840322818
12.812,0.0916807646677251
12.814,0.084319206409132
12.816,0.0768469024702515
12.818,0.0690487177674925
12.82,0.0608560663784479
12.822,0.0523469115418942
12.824,0.0436145721538932
12.826,0.0349589980668937
12.828,0.0268867700897307
12.83,0.0199134529858649
12.832,0.0145372349964884
12.834,0.0108566443506153
12.836,0.00857054926508249
12.838,0.00736044143445785
12.84,0.00690781255330947
12.842,0.00689415431620538
12.844,0.00700095841771364
12.846,0.00691791906911415
12.848,0.0065233883660587
12.85,0.00588437628857097
12.852,0.00507609533338665
12.854,0.00417375799724118
12.856,0.00325257677687024
12.858,0.00238776416900932
12.86,0
12.862,0
12.864,0
12.866,0
12.868,0
12.87,0
12.872,0
12.874,0
12.876,0
12.878,0
12.88,0
12.882,0
12.884,0
12.886,0
12.888,0
12.89,0
12.892,0
12.894,0
12.896,0
12.898,0
12.9,0
12.902,0
12.904,0
12.906,0
12.908,0
12.91,0
12.912,0
12.914,0
12.916,0
12.918,0
12.92,0
12.922,0
12.924,0
12.926,0
12.928,0
12.93,0
12.932,0
12.934,0
12.936,0
12.938,0
12.94,0
12.942,0
12.944,0
12.946,0
12.948,0
12.95,0
12.952,0
12.954,0
12.956,0
12.958,0
12.96,0
12.962,0
12.964,0
12.966,0
12.968,0
12.97,0
12.972,0
12.974,0
12.976,0
12.978,0
12.98,0
12.982,0
12.984,0
12.986,0
12.988,0
12.99,0
12.992,0
12.994,0
12.996,0
12.998,0
13,0
13.002,0
13.004,0
13.006,0
13.008,0
13.01,0
13.012,0
13.014,0
13.016,0
13.018,0
13.02,0
13.022,0
13.024,0
13.026,0
13.028,0
13.03,0
13.032,0
13.034,0
13.036,0
13.038,0
13.04,0
13.042,0
13.044,0
13.046,0
13.048,0
13.05,0
13.052,0
13.054,0
13.056,0
13.058,0
13.06,0
13.062,0
13.064,0
13.066,0
13.068,0
13.07,0
13.072,0
13.074,0
13.076,0
13.078,0
13.08,0
13.082,0
13.084,0
13.086,0
13.088,0
13.09,0
13.092,0
13.094,0
13.096,0
13.098,0
13.1,0
13.102,0
13.104,0
13.106,0
13.108,0
13.11,0
13.112,0
13.114,0
13.116,0
13.118,0
13.12,0
13.122,0
13.124,0
13.126,0
13.128,0
13.13,0
13.132,0
13.134,0
13.136,0
13.138,0
13.14,0
13.142,0
13.144,0
13.146,0
13.148,0
13.15,0
13.152,0
13.154,0
13.156,0
13.158,0
13.16,0
13.162,0
13.164,0
13.166,0
13.168,0
13.17,0
13.172,0
13.174,0
13.176,0
13.178,0
13.18,0
13.182,0
13.184,0
13.186,0
13.188,0
13.19,0
13.192,0
13.194,0
13.196,0
13.198,0
13.2,0
13.202,0
13.204,0
13.206,0
13.208,0
13.21,0
13.212,0
13.214,0
13.216,0
13.218,0
13.22,0
13.222,0
13.224,0
13.226,0
13.228,0
13.23,0
13.232,0
13.234,0
13.236,0
13.238,0
13.24,0
13.242,0
13.244,0
13.246,0
13.248,0
13.25,0
13.252,0
13.254,0
13.256,0
13.258,0
13.26,0
13.262,0
13.264,0
13.266,0
13.268,0
13.27,0
13.272,0
13.274,0
13.276,0
13.278,0
13.28,0
13.282,0
13.284,0
13.286,0
13.288,0
13.29,0
13.292,0
13.294,0
13.296,0
13.298,0
13.3,0
13.302,0
13.304,0
13.306,0
13.308,0
13.31,0
13.312,0
13.314,0
13.316,0
13.318,0
13.32,0
13.322,0
13.324,0
13.326,0
13.328,0
13.33,0
13.332,0
13.334,0
13.336,0
13.338,0
13.34,0
13.342,0
13.344,0
13.346,0
13.348,0
13.35,0
13.352,0
13.354,0
13.356,0
13.358,0
13.36,0
13.362,0
13.364,0
13.366,0
13.368,0
13.37,0
13.372,0
13.374,0
13.376,0
13.378,0
13.38,0
13.382,0
13.384,0
13.386,0
13.388,0
13.39,0
13.392,0
13.394,0
13.396,0
13.398,0
13.4,0
13.402,0
13.404,0
13.406,0
13.408,0
13.41,0
13.412,0
13.414,0
13.416,0
13.418,0
13.42,0
13.422,0
13.424,0
13.426,0
13.428,0
13.43,0
13.432,0
13.434,0
13.436,0
13.438,0
13.44,0
13.442,0
13.444,0
13.446,0
13.448,0
13.45,0
13.452,0
13.454,0
13.456,0
13.458,0
13.46,0
13.462,0
13.464,0
13.466,0
13.468,0
13.47,0
13.472,0
13.474,0
13.476,0
13.478,0
13.48,0
13.482,0
13.484,0
13.486,0
13.488,0
13.49,0
13.492,0
13.494,0
13.496,0
13.498,0
13.5,0
13.502,0
13.504,0
13.506,0
13.508,0
13.51,0
13.512,0
13.514,0
13.516,0
13.518,0
13.52,0
13.522,0
13.524,0
13.526,0
13.528,0
13.53,0
13.532,0
13.534,0
13.536,0
13.538,0
13.54,0
13.542,0
13.544,0
13.546,0
13.548,0
13.55,0
13.552,0
13.554,0
13.556,0
13.558,0
13.56,0
13.562,0
13.564,0
13.566,0
13.568,0
13.57,0
13.572,0
13.574,0
13.576,0
13.578,0
13.58,0
13.582,0
13.584,0
13.586,0
13.588,0
13.59,0
13.592,0
13.594,0
13.596,0
13.598,0
13.6,0
13.602,0
13.604,0
13.606,0
13.608,0
13.61,0
13.612,0
13.614,0
13.616,0
13.618,0
13.62,0
13.622,0
13.624,0
13.626,0
13.628,0
13.63,0
13.632,0
13.634,0
13.636,0
13.638,0
13.64,0
13.642,0
13.644,0
13.646,0
13.648,0
13.65,0
13.652,0
13.654,0
13.656,0
13.658,0
13.66,0
13.662,0
13.664,0
13.666,0
13.668,0
13.67,0
13.672,0
13.674,0
13.676,0
13.678,0
13.68,0
13.682,0
13.684,0
13.686,0
13.688,0
13.69,0
13.692,0
13.694,0
13.696,0
13.698,0
13.7,0
13.702,0
13.704,0
13.706,0
13.708,0
13.71,0
13.712,0
13.714,0
13.716,0
13.718,0
13.72,0
13.722,0
13.724,0
13.726,0
13.728,0
13.73,0
13.732,0
13.734,0
13.736,0
13.738,0
13.74,0
13.742,0
13.744,0
13.746,0
13.748,0
13.75,0
13.752,0
13.754,0
13.756,0
13.758,0
13.76,0
13.762,0
13.764,0
13.766,0
13.768,0
13.77,0
13.772,0
13.774,0
13.776,0
13.778,0
13.78,0
13.782,0
13.784,0
13.786,0
13.788,0
13.79,0
13.792,0
13.794,0
13.796,0
13.798,0
13.8,0
13.802,0
13.804,0
13.806,0
13.808,0
13.81,0
13.812,0
13.814,0
13.816,0
13.818,0
13.82,0
13.822,0
13.824,0
13.826,0
13.828,0
13.83,0
13.832,0
13.834,0
13.836,0
13.838,0
13.84,0
13.842,0
13.844,0
13.846,0
13.848,0
13.85,0
13.852,0
13.854,0
13.856,0
13.858,0
13.86,0
13.862,0
13.864,0
13.866,0
13.868,0
13.87,0
13.872,0
13.874,0
13.876,0
13.878,0
13.88,-0.00708460711772357
13.882,-0.00875867789606505
13.884,-0.0097707094803553
13.886,-0.0100503433721833
13.888,-0.0095272210731378
13.89,-0.00813098408480784
13.892,-0.00579127390878231
13.894,-0.00243773204665004
13.896,0.002
13.898,0.00759228072957896
13.9,0.0144094686404979
13.902,0.0225219222311678
13.904,0.032
13.906,0.0426795580987543
13.908,0.0534584432925861
13.91,0.063
13.912,0.0703086533523926
13.914,0.0757531513327301
13.916,0.0800433226368714
13.918,0.0838889959606751
13.92,0.088
13.922,0.0928813623772117
13.924,0.0982189064207034
13.926,0.103493654385375
13.928,0.108186628526127
13.93,0.11177885109786
13.932,0.113769020525728
13.934,0.114062387150768
13.936,0.112970753229892
13.938,0.11082359719027
13.94,0.107950397459071
13.942,0.104680632463465
13.944,0.101322448742521
13.946,0.0976933594089958
13.948,0.0931202441493368
13.95,0.0869086507618899
13.952,0.0783641270450015
13.954,0.0668822379065784
13.956,0.0539289417744214
13.958,0.0429403503473251
13.96,0.0351370667089276
13.962,0.02943416821815
13.964,0.0246658413406259
13.966,0.0201113077210971
13.968,0.0154948241834132
13.97,0.010559996907037
13.972,0.00505043207143152
13.974,-0.00126930799882813
13.976,-0.00815266964158817
13.978,-0.0148711078571161
13.98,-0.0206751215005672
13.982,-0.0248404509021935
13.984,-0.0272233903194679
13.986,-0.0282607879370846
13.988,-0.0284147334148342
13.99,-0.0281473164125075
13.992,-0.0279110227506538
13.994,-0.0279374499472761
13.996,-0.0282373072178306
13.998,-0.0288116999385322
14,-0.0296617334855958
14.002,-0.0307885132352366
14.004,-0.0321931445636694
14.006,-0.0338708461454447
14.008,-0.0356814425168278
14.01,-0.0373493640757983
14.012,-0.0385931545186718
14.014,-0.0391313575417635
14.016,-0.0386825168413888
14.018,-0.0369941879126011
14.02,-0.0344811976214325
14.022,-0.0322256442048932
14.024,-0.0313386376987318
14.026,-0.0329312881386968
14.028,-0.0381147055605367
14.03,-0.048
14.032,-0.0626784974835354
14.034,-0.0781623880003917
14.036,-0.0894440775305174
14.038,-0.0915159720538615
14.04,-0.0793704775503728
14.042,-0.048
14.044,0.00787945198275486
14.046,0.0946574592451774
14.048,0.219
14.05,0.381817728105234
14.052,0.561000000000002
14.054,0.731376282654542
14.056,0.878557782582414
14.058,0.990851141183019
14.06,1.05656299985575
14.062,1.064
14.064,1.00488859171392
14.066,0.884634459890632
14.068,0.712063098122032
14.07,0.496
14.072,0.254558087983522
14.074,0.043
14.076,-0.0893680600355242
14.078,-0.154215339725855
14.08,-0.178454949553258
14.082,-0.189
14.084,-0.207222774035877
14.086,-0.232332244580807
14.088,-0.257996557042236
14.09,-0.277883856827612
14.092,-0.285662289344385
14.094,-0.275
14.096,-0.243436904532212
14.098,-0.204
14.1,-0.169825574630218
14.102,-0.139
14.104,-0.107510796946915
14.106,-0.078
14.108,-0.0537956915439227
14.11,-0.0343156316944211
14.112,-0.018
14.114,-0.00368003270056166
14.116,0.00824880719840165
14.118,0.0170000000000001
14.12,0.0220597302817335
14.122,0.024004999718662
14.124,0.0236855142602354
14.126,0.0219509798559031
14.128,0.0196511024551151
14.13,0.0176355880073211
14.132,0.0167297140094783
14.134,0.0171969035512132
14.136,0.0187387253148218
14.138,0.0210323195301075
14.14,0.0237548264268736
14.142,0.0265833862349236
14.144,0.0291951391840608
14.146,0.0312672255040886
14.148,0.0324905874761291
14.15,0.0328736145616375
14.152,0.0327421434024014
14.154,0.0324358126915276
14.156,0.0322942611221227
14.158,0.0326571273872933
14.16,0.033864050180146
14.162,0.0362546681937876
14.164,0.0401436841055604
14.166,0.0452722722302258
14.168,0.0508080785199653
14.17,0.0558938129111955
14.172,0.0596998208139116
14.174,0.0620320635304039
14.176,0.0633321182552582
14.178,0.0640691976566383
14.18,0.0647125144027081
14.182,0.0657312811616315
14.184,0.0675947106015724
14.186,0.0707720153906946
14.188,0.075707707542456
14.19,0.0822781840120751
14.192,0.0897917266965311
14.194,0.0975319168380971
14.196,0.104782335679046
14.198,0.110850674447582
14.2,0.115599154048302
14.202,0.119444525062197
14.204,0.122827648056189
14.206,0.1261893835972
14.208,0.129961074483104
14.21,0.134355154823714
14.212,0.139365150040776
14.214,0.144975067786991
14.216,0.151180214652303
14.218,0.15823577278326
14.22,0.166656799883013
14.222,0.176969652591957
14.224,0.189615019787096
14.226,0.203063231787402
14.228,0.213945376139752
14.23,0.221822535704069
14.232,0.229271456416719
14.234,0.239
14.236,0.252792250946704
14.238,0.268737184831612
14.24,0.284
14.242,0.296733016402373
14.244,0.309037040410155
14.246,0.324
14.248,0.3435530184195
14.25,0.365
14.252,0.38471751296214
14.254,0.4
14.256,0.409951929731939
14.258,0.42
14.26,0.434849768110105
14.262,0.45
14.264,0.460110519769421
14.266,0.465692175534234
14.268,0.468718571414336
14.27,0.471163311529625
14.272,0.475
14.274,0.481537130450361
14.276,0.489422754525623
14.278,0.496639813375705
14.28,0.501171248150525
14.282,0.501
14.284,0.494957174166807
14.286,0.485266532264652
14.288,0.475
14.29,0.466376167431725
14.292,0.458200282028347
14.294,0.448424255610795
14.296,0.435
14.298,0.416718057527356
14.3,0.395723492566117
14.302,0.375
14.304,0.356409315249406
14.306,0.337325335881468
14.308,0.314
14.31,0.284481119319851
14.312,0.254
14.314,0.227801351245305
14.316,0.204
14.318,0.180063475698928
14.32,0.158
14.322,0.14025968249682
14.324,0.12651949230269
14.326,0.115763113410835
14.328,0.106974229814481
14.33,0.0991530840322818
14.332,0.0916807646677251
14.334,0.084319206409132
14.336,0.0768469024702515
14.338,0.0690487177674925
14.34,0.0608560663784479
14.342,0.0523469115418942
14.344,0.0436145721538932
14.346,0.0349589980668937
14.348,0.0268867700897307
14.35,0.0199134529858649
14.352,0.0145372349964884
14.354,0.0108566443506153
14.356,0.00857054926508249
14.358,0.00736044143445785
14.36,0.00690781255330947
14.362,0.00689415431620538
14.364,0.00700095841771364
14.366,0.00691791906911415
14.368,0.0065233883660587
14.37,0.00588437628857097
14.372,0.00507609533338665
14.374,0.00417375799724118
14.376,0.00325257677687024
14.378,0.00238776416900932
14.38,0
14.382,0
14.384,0
14.386,0
14.388,0
14.39,0
14.392,0
14.394,0
14.396,0
14.398,0
14.4,0
14.402,0
14.404,0
14.406,0
14.408,0
14.41,0
14.412,0
14.414,0
14.416,0
14.418,0
14.42,0
14.422,0
14.424,0
14.426,0
14.428,0
14.43,0
14.432,0
14.434,0
14.436,0
14.438,0
14.44,0
14.442,0
14.444,0
14.446,0
14.448,0
14.45,0
14.452,0
14.454,0
14.456,0
14.458,0
14.46,0
14.462,0
14.464,0
14.466,0
14.468,0
14.47,0
14.472,0
14.474,0
14.476,0
14.478,0
14.48,0
14.482,0
14.484,0
14.486,0
14.488,0
14.49,0
14.492,0
14.494,0
14.496,0
14.498,0
14.5,0
14.502,0
14.504,0
14.506,0
14.508,0
14.51,0
14.512,0
14.514,0
14.516,0
14.518,0
14.52,0
14.522,0
14.524,0
14.526,0
14.528,0
14.53,0
14.532,0
14.534,0
14.536,0
14.538,0
14.54,0
14.542,0
14.544,0
14.546,0
14.548,0
14.55,0
14.552,0
14.554,0
14.556,0
14.558,0
14.56,0
14.562,0
14.564,0
14.566,0
14.568,0
14.57,0
14.572,0
14.574,0
14.576,0
14.578,0
14.58,0
14.582,0
14.584,0
14.586,0
14.588,0
14.59,0
14.592,0
14.594,0
14.596,0
14.598,0
14.6,0
14.602,0
14.604,0
14.606,0
14.608,0
14.61,0
14.612,0
14.614,0
14.616,0
14.618,0
14.62,0
14.622,0
14.624,0
14.626,0
14.628,0
14.63,0
14.632,0
14.634,0
14.636,0
14.638,0
14.64,0
14.642,0
14.644,0
14.646,0
14.648,0
14.65,0
14.652,0
14.654,0
14.656,0
14.658,0
14.66,0
14.662,0
14.664,0
14.666,0
14.668,0
14.67,0
14.672,0
14.674,0
14.676,0
14.678,0
14.68,0
14.682,0
14.684,0
14.686,0
14.688,0
14.69,0
14.692,0
14.694,0
14.696,0
14.698,0
14.7,0
14.702,0
14.704,0
14.706,0
14.708,0
14.71,0
14.712,0
14.714,0
14.716,0
14.718,0
14.72,0
14.722,0
14.724,0
14.726,0
14.728,0
14.73,0
14.732,0
14.734,0
14.736,0
14.738,0
14.74,0
14.742,0
14.744,0
14.746,0
14.748,0
14.75,0
14.752,0
14.754,0
14.756,0
14.758,0
14.76,0
14.762,0
14.764,0
14.766,0
14.768,0
14.77,0
14.772,0
14.774,0
14.776,0
14.778,0
14.78,0
14.782,0
14.784,0
14.786,0
14.788,0
14.79,0
14.792,0
14.794,0
14.796,0
14.798,0
14.8,0
14.802,0
14.804,0
14.806,0
14.808,0
14.81,0
14.812,0
14.814,0
14.816,0
14.818,0
14.82,0
14.822,0
14.824,0
14.826,0
14.828,0
14.83,0
14.832,0
14.834,0
14.836,0
14.838,0
14.84,0
14.842,0
14.844,0
14.846,0
14.848,0
14.85,0
14.852,0
14.854,0
14.856,0
14.858,0
14.86,0
14.862,0
14.864,0
14.866,0
14.868,0
14.87,0
14.872,0
14.874,0
14.876,0
14.878,0
14.88,0
14.882,0
14.884,0
14.886,0
14.888,0
14.89,0
14.892,0
14.894,0
14.896,0
14.898,0
14.9,0
14.902,0
14.904,0
14.906,0
14.908,0
14.91,0
14.912,0
14.914,0
14.916,0
14.918,0
14.92,0
14.922,0
14.924,0
14.926,0
14.928,0
14.93,0
14.932,0
14.934,0
14.936,0
14.938,0
14.94,0
14.942,0
14.944,0
14.946,0
14.948,0
14.95,0
14.952,0
14.954,0
14.956,0
14.958,0
14.96,0
14.962,0
14.964,0
14.966,0
14.968,0
14.97,0
14.972,0
14.974,0
14.976,0
14.978,0
14.98,0
14.982,0
14.984,0
14.986,0
14.988,0
14.99,0
14.992,0
14.994,0
14.996,0
14.998,0
15,0
15.002,0
15.004,0
15.006,0
15.008,0
15.01,0
15.012,0
15.014,0
15.016,0
15.018,0
15.02,0
15.022,0
15.024,0
15.026,0
15.028,0
15.03,0
15.032,0
15.034,0
15.036,0
15.038,0
15.04,0
15.042,0
15.044,0
15.046,0
15.048,0
15.05,0
15.052,0
15.054,0
15.056,0
15.058,0
15.06,0
15.062,0
15.064,0
15.066,0
15.068,0
15.07,0
15.072,0
15.074,0
15.076,0
15.078,0
15.08,0
15.082,0
15.084,0
15.086,0
15.088,0
15.09,0
15.092,0
15.094,0
15.096,0
15.098,0
15.1,0
15.102,0
15.104,0
15.106,0
15.108,0
15.11,0
15.112,0
15.114,0
15.116,0
15.118,0
15.12,0
15.122,0
15.124,0
15.126,0
15.128,0
15.13,0
15.132,0
15.134,0
15.136,0
15.138,0
15.14,0
15.142,0
15.144,0
15.146,0
15.148,0
15.15,0
15.152,0
15.154,0
15.156,0
15.158,0
15.16,0
15.162,0
15.164,0
15.166,0
15.168,0
15.17,0
15.172,0
15.174,0
15.176,0
15.178,0
15.18,0
15.182,0
15.184,0
15.186,0
15.188,0
15.19,0
15.192,0
15.194,0
15.196,0
15.198,0
15.2,0
15.202,0
15.204,0
15.206,0
15.208,0
15.21,0
15.212,0
15.214,0
15.216,0
15.218,0
15.22,0
15.222,0
15.224,0
15.226,0
15.228,0
15.23,0
15.232,0
15.234,0
15.236,0
15.238,0
15.24,0
15.242,0
15.244,0
15.246,0
15.248,0
15.25,0
15.252,0
15.254,0
15.256,0
15.258,0
15.26,0
15.262,0
15.264,0
15.266,0
15.268,0
15.27,0
15.272,0
15.274,0
15.276,0
15.278,0
15.28,0
15.282,0
15.284,0
15.286,0
15.288,0
15.29,0
15.292,0
15.294,0
15.296,0
15.298,0
15.3,0
15.302,0
15.304,0
15.306,0
15.308,0
15.31,0
15.312,0
15.314,0
15.316,0
15.318,0
15.32,0
15.322,0
15.324,0
15.326,0
15.328,0
15.33,0
15.332,0
15.334,0
15.336,0
15.338,0
15.34,0
15.342,0
15.344,0
15.346,0
15.348,0
15.35,0
15.352,0
15.354,0
15.356,0
15.358,0
15.36,0
15.362,0
15.364,0
15.366,0
15.368,0
15.37,0
15.372,0
15.374,0
15.376,0
15.378,0
15.38,0
15.382,0
15.384,0
15.386,0
15.388,0
15.39,-0.00708460711772357
15.392,-0.00875867789606505
15.394,-0.0097707094803553
15.396,-0.0100503433721833
15.398,-0.0095272210731378
15.4,-0.00813098408480784
15.402,-0.00579127390878231
15.404,-0.00243773204665004
15.406,0.002
15.408,0.00759228072957896
15.41,0.0144094686404979
15.412,0.0225219222311678
15.414,0.032
15.416,0.0426795580987543
15.418,0.0534584432925861
15.42,0.063
15.422,0.0703086533523926
15.424,0.0757531513327301
15.426,0.0800433226368714
15.428,0.0838889959606751
15.43,0.088
15.432,0.0928813623772117
15.434,0.0982189064207034
15.436,0.103493654385375
15.438,0.108186628526127
15.44,0.11177885109786
15.442,0.113769020525728
15.444,0.114062387150768
15.446,0.112970753229892
15.448,0.11082359719027
15.45,0.107950397459071
15.452,0.104680632463465
15.454,0.101322448742521
15.456,0.0976933594089958
15.458,0.0931202441493368
15.46,0.0869086507618899
15.462,0.0783641270450015
15.464,0.0668822379065784
15.466,0.0539289417744214
15.468,0.0429403503473251
15.47,0.0351370667089276
15.472,0.02943416821815
15.474,0.0246658413406259
15.476,0.0201113077210971
15.478,0.0154948241834132
15.48,0.010559996907037
15.482,0.00505043207143152
15.484,-0.00126930799882813
15.486,-0.00815266964158817
15.488,-0.0148711078571161
15.49,-0.0206751215005672
15.492,-0.0248404509021935
15.494,-0.0272233903194679
15.496,-0.0282607879370846
15.498,-0.0284147334148342
15.5,-0.0281473164125075
15.502,-0.0279110227506538
15.504,-0.0279374499472761
15.506,-0.0282373072178306
15.508,-0.0288116999385322
15.51,-0.0296617334855958
15.512,-0.0307885132352366
15.514,-0.0321931445636694
15.516,-0.0338708461454447
15.518,-0.0356814425168278
15.52,-0.0373493640757983
15.522,-0.0385931545186718
15.524,-0.0391313575417635
15.526,-0.0386825168413888
15.528,-0.0369941879126011
15.53,-0.0344811976214325
15.532,-0.0322256442048932
15.534,-0.0313386376987318
15.536,-0.0329312881386968
15.538,-0.0381147055605367
15.54,-0.048
15.542,-0.0626784974835354
15.544,-0.0781623880003917
15.546,-0.0894440775305174
15.548,-0.0915159720538615
15.55,-0.0793704775503728
15.552,-0.048
15.554,0.00787945198275486
15.556,0.0946574592451774
15.558,0.219
15.56,0.381817728105234
15.562,0.561000000000002
15.564,0.731376282654542
15.566,0.878557782582414
15.568,0.990851141183019
15.57,1.05656299985575
15.572,1.064
15.574,1.00488859171392
15.576,0.884634459890632
15.578,0.712063098122032
15.58,0.496
15.582,0.254558087983522
15.584,0.043
15.586,-0.0893680600355242
15.588,-0.154215339725855
15.59,-0.178454949553258
15.592,-0.189
15.594,-0.207222774035877
15.596,-0.232332244580807
15.598,-0.257996557042236
15.6,-0.277883856827612
15.602,-0.285662289344385
15.604,-0.275
15.606,-0.243436904532212
15.608,-0.204
15.61,-0.169825574630218
15.612,-0.139
15.614,-0.107510796946915
15.616,-0.078
15.618,-0.0537956915439227
15.62,-0.0343156316944211
15.622,-0.018
15.624,-0.00368003270056166
15.626,0.00824880719840165
15.628,0.0170000000000001
15.63,0.0220597302817335
15.632,0.024004999718662
15.634,0.0236855142602354
15.636,0.0219509798559031
15.638,0.0196511024551151
15.64,0.0176355880073211
15.642,0.0167297140094783
15.644,0.0171969035512132
15.646,0.0187387253148218
15.648,0.0210323195301075
15.65,0.0237548264268736
15.652,0.0265833862349236
15.654,0.0291951391840608
15.656,0.0312672255040886
15.658,0.0324905874761291
15.66,0.0328736145616375
15.662,0.0327421434024014
15.664,0.0324358126915276
15.666,0.0322942611221227
15.668,0.0326571273872933
15.67,0.033864050180146
15.672,0.0362546681937876
15.674,0.0401436841055604
15.676,0.0452722722302258
15.678,0.0508080785199653
15.68,0.0558938129111955
15.682,0.0596998208139116
15.684,0.0620320635304039
15.686,0.0633321182552582
15.688,0.0640691976566383
15.69,0.0647125144027081
15.692,0.0657312811616315
15.694,0.0675947106015724
15.696,0.0707720153906946
15.698,0.075707707542456
15.7,0.0822781840120751
15.702,0.0897917266965311
15.704,0.0975319168380971
15.706,0.104782335679046
15.708,0.110850674447582
15.71,0.115599154048302
15.712,0.119444525062197
15.714,0.122827648056189
15.716,0.1261893835972
15.718,0.129961074483104
15.72,0.134355154823714
15.722,0.139365150040776
15.724,0.144975067786991
15.726,0.151180214652303
15.728,0.15823577278326
15.73,0.166656799883013
15.732,0.176969652591957
15.734,0.189615019787096
15.736,0.203063231787402
15.738,0.213945376139752
15.74,0.221822535704069
15.742,0.229271456416719
15.744,0.239
15.746,0.252792250946704
15.748,0.268737184831612
15.75,0.284
15.752,0.296733016402373
15.754,0.309037040410155
15.756,0.324
15.758,0.3435530184195
15.76,0.365
15.762,0.38471751296214
15.764,0.4
15.766,0.409951929731939
15.768,0.42
15.77,0.434849768110105
15.772,0.45
15.774,0.460110519769421
15.776,0.465692175534234
15.778,0.468718571414336
15.78,0.471163311529625
15.782,0.475
15.784,0.481537130450361
15.786,0.489422754525623
15.788,0.496639813375705
15.79,0.501171248150525
15.792,0.501
15.794,0.494957174166807
15.796,0.485266532264652
15.798,0.475
15.8,0.466376167431725
15.802,0.458200282028347
15.804,0.448424255610795
15.806,0.435
15.808,0.416718057527356
15.81,0.395723492566117
15.812,0.375
15.814,0.356409315249406
15.816,0.337325335881468
15.818,0.314
15.82,0.284481119319851
15.822,0.254
15.824,0.227801351245305
15.826,0.204
15.828,0.180063475698928
15.83,0.158
15.832,0.14025968249682
15.834,0.12651949230269
15.836,0.115763113410835
15.838,0.106974229814481
15.84,0.0991530840322818
15.842,0.0916807646677251
15.844,0.084319206409132
15.846,0.0768469024702515
15.848,0.0690487177674925
15.85,0.0608560663784479
15.852,0.0523469115418942
15.854,0.0436145721538932
15.856,0.0349589980668937
15.858,0.0268867700897307
15.86,0.0199134529858649
15.862,0.0145372349964884
15.864,0.0108566443506153
15.866,0.00857054926508249
15.868,0.00736044143445785
15.87,0.00690781255330947
15.872,0.00689415431620538
15.874,0.00700095841771364
15.876,0.00691791906911415
15.878,0.0065233883660587
15.88,0.00588437628857097
15.882,0.00507609533338665
15.884,0.00417375799724118
15.886,0.00325257677687024
15.888,0.00238776416900932
15.89,0
15.892,0
15.894,0
15.896,0
15.898,0
15.9,0
15.902,0
15.904,0
15.906,0
15.908,0
15.91,0
15.912,0
15.914,0
15.916,0
15.918,0
15.92,0
15.922,0
15.924,0
15.926,0
15.928,0
15.93,0
15.932,0
15.934,0
15.936,0
15.938,0
15.94,0
15.942,0
15.944,0
15.946,0
15.948,0
15.95,0
15.952,0
15.954,0
15.956,0
15.958,0
15.96,0
15.962,0
15.964,0
15.966,0
15.968,0
15.97,0
15.972,0
15.974,0
15.976,0
15.978,0
15.98,0
15.982,0
15.984,0
15.986,0
15.988,0
15.99,0
15.992,0
15.994,0
15.996,0
15.998,0
16,0
16.002,0
16.004,0
16.006,0
16.008,0
16.01,0
16.012,0
16.014,0
16.016,0
16.018,0
16.02,0
16.022,0
16.024,0
16.026,0
16.028,0
16.03,0
16.032,0
16.034,0
16.036,0
16.038,0
16.04,0
16.042,0
16.044,0
16.046,0
16.048,0
16.05,0
16.052,0
16.054,0
16.056,0
16.058,0
16.06,0
16.062,0
16.064,0
16.066,0
16.068,0
16.07,0
16.072,0
16.074,0
16.076,0
16.078,0
16.08,0
16.082,0
16.084,0
16.086,0
16.088,0
16.09,0
16.092,0
16.094,0
16.096,0
16.098,0
16.1,0
16.102,0
16.104,0
16.106,0
16.108,0
16.11,0
16.112,0
16.114,0
16.116,0
16.118,0
16.12,0
16.122,0
16.124,0
16.126,0
16.128,0
16.13,0
16.132,0
16.134,0
16.136,0
16.138,0
16.14,0
16.142,0
16.144,0
16.146,0
16.148,0
16.15,0
16.152,0
16.154,0
16.156,0
16.158,0
16.16,0
16.162,0
16.164,0
16.166,0
16.168,0
16.17,0
16.172,0
16.174,0
16.176,0
16.178,0
16.18,0
16.182,0
16.184,0
16.186,0
16.188,0
16.19,0
16.192,0
16.194,0
16.196,0
16.198,0
16.2,0
16.202,0
16.204,0
16.206,0
16.208,0
16.21,0
16.212,0
16.214,0
16.216,0
16.218,0
16.22,0
16.222,0
16.224,0
16.226,0
16.228,0
16.23,0
16.232,0
16.234,0
16.236,0
16.238,0
16.24,0
16.242,0
16.244,0
16.246,0
16.248,0
16.25,0
16.252,0
16.254,0
16.256,0
16.258,0
16.26,0
16.262,0
16.264,0
16.266,0
16.268,0
16.27,0
16.272,0
16.274,0
16.276,0
16.278,0
16.28,0
16.282,0
16.284,0
16.286,0
16.288,0
16.29,0
16.292,0
16.294,0
16.296,0
16.298,0
16.3,0
16.302,0
16.304,0
16.306,0
16.308,0
16.31,0
16.312,0
16.314,0
16.316,0
16.318,0
16.32,0
16.322,0
16.324,0
16.326,0
16.328,0
16.33,0
16.332,0
16.334,0
16.336,0
16.338,0
16.34,0
16.342,0
16.344,0
16.346,0
16.348,0
16.35,0
16.352,0
16.354,0
16.356,0
16.358,0
16.36,0
16.362,0
16.364,0
16.366,0
16.368,0
16.37,0
16.372,0
16.374,0
16.376,0
16.378,0
16.38,0
16.382,0
16.384,0
16.386,0
16.388,0
16.39,0
16.392,0
16.394,0
16.396,0
16.398,0
16.4,0
16.402,0
16.404,0
16.406,0
16.408,0
16.41,0
16.412,0
16.414,0
16.416,0
16.418,0
16.42,0
16.422,0
16.424,0
16.426,0
16.428,0
16.43,0
16.432,0
16.434,0
16.436,0
16.438,0
16.44,0
16.442,0
16.444,0
16.446,0
16.448,0
16.45,0
16.452,0
16.454,0
16.456,0
16.458,0
16.46,0
16.462,0
16.464,0
16.466,0
16.468,0
16.47,0
16.472,0
16.474,0
16.476,0
16.478,0
16.48,0
16.482,0
16.484,0
16.486,0
16.488,0
16.49,0
16.492,0
16.494,0
16.496,0
16.498,0
16.5,0
16.502,0
16.504,0
16.506,0
16.508,0
16.51,0
16.512,0
16.514,0
16.516,0
16.518,0
16.52,0
16.522,0
16.524,0
16.526,0
16.528,0
16.53,0
16.532,0
16.534,0
16.536,0
16.538,0
16.54,0
16.542,0
16.544,0
16.546,0
16.548,0
16.55,0
16.552,0
16.554,0
16.556,0
16.558,0
16.56,0
16.562,0
16.564,0
16.566,0
16.568,0
16.57,0
16.572,0
16.574,0
16.576,0
16.578,0
16.58,0
16.582,0
16.584,0
16.586,0
16.588,0
16.59,0
16.592,0
16.594,0
16.596,0
16.598,0
16.6,0
16.602,0
16.604,0
16.606,0
16.608,0
16.61,0
16.612,0
16.614,0
16.616,0
16.618,0
16.62,0
16.622,0
16.624,0
16.626,0
16.628,0
16.63,0
16.632,0
16.634,0
16.636,0
16.638,0
16.64,0
16.642,0
16.644,0
16.646,0
16.648,0
16.65,0
16.652,0
16.654,0
16.656,0
16.658,0
16.66,0
16.662,0
16.664,0
16.666,0
16.668,0
16.67,0
16.672,0
16.674,0
16.676,0
16.678,0
16.68,0
16.682,0
16.684,0
16.686,0
16.688,0
16.69,0
16.692,0
16.694,0
16.696,0
16.698,0
16.7,0
16.702,0
16.704,0
16.706,0
16.708,0
16.71,0
16.712,0
16.714,0
16.716,0
16.718,0
16.72,0
16.722,0
16.724,0
16.726,0
16.728,0
16.73,0
16.732,0
16.734,0
16.736,0
16.738,0
16.74,0
16.742,0
16.744,0
16.746,0
16.748,0
16.75,0
16.752,0
16.754,0
16.756,0
16.758,0
16.76,0
16.762,0
16.764,0
16.766,0
16.768,0
16.77,0
16.772,0
16.774,0
16.776,0
16.778,0
16.78,0
16.782,0
16.784,0
16.786,0
16.788,0
16.79,0
16.792,0
16.794,0
16.796,0
16.798,0
16.8,0
16.802,0
16.804,0
16.806,0
16.808,0
16.81,0
16.812,0
16.814,0
16.816,0
16.818,0
16.82,0
16.822,0
16.824,0
16.826,0
16.828,0
16.83,0
16.832,0
16.834,0
16.836,0
16.838,0
16.84,0
16.842,0
16.844,0
16.846,0
16.848,0
16.85,0
16.852,0
16.854,0
16.856,0
16.858,0
16.86,0
16.862,0
16.864,0
16.866,0
16.868,0
16.87,0
16.872,0
16.874,0
16.876,0
16.878,0
16.88,0
16.882,0
16.884,0
16.886,0
16.888,0
16.89,0
16.892,-0.00708460711772357
16.894,-0.00875867789606505
16.896,-0.0097707094803553
16.898,-0.0100503433721833
16.9,-0.0095272210731378
16.902,-0.00813098408480784
16.904,-0.00579127390878231
16.906,-0.00243773204665004
16.908,0.002
16.91,0.00759228072957896
16.912,0.0144094686404979
16.914,0.0225219222311678
16.916,0.032
16.918,0.0426795580987543
16.92,0.0534584432925861
16.922,0.063
16.924,0.0703086533523926
16.926,0.0757531513327301
16.928,0.0800433226368714
16.93,0.0838889959606751
16.932,0.088
16.934,0.0928813623772117
16.936,0.0982189064207034
16.938,0.103493654385375
16.94,0.108186628526127
16.942,0.11177885109786
16.944,0.113769020525728
16.946,0.114062387150768
16.948,0.112970753229892
16.95,0.11082359719027
16.952,0.107950397459071
16.954,0.104680632463465
16.956,0.101322448742521
16.958,0.0976933594089958
16.96,0.0931202441493368
16.962,0.0869086507618899
16.964,0.0783641270450015
16.966,0.0668822379065784
16.968,0.0539289417744214
16.97,0.0429403503473251
16.972,0.0351370667089276
16.974,0.02943416821815
16.976,0.0246658413406259
16.978,0.0201113077210971
16.98,0.0154948241834132
16.982,0.010559996907037
16.984,0.00505043207143152
16.986,-0.00126930799882813
16.988,-0.00815266964158817
16.99,-0.0148711078571161
16.992,-0.0206751215005672
16.994,-0.0248404509021935
16.996,-0.0272233903194679
16.998,-0.0282607879370846
17,-0.0284147334148342
17.002,-0.0281473164125075
17.004,-0.0279110227506538
17.006,-0.0279374499472761
17.008,-0.0282373072178306
17.01,-0.0288116999385322
17.012,-0.0296617334855958
17.014,-0.0307885132352366
17.016,-0.0321931445636694
17.018,-0.0338708461454447
17.02,-0.0356814425168278
17.022,-0.0373493640757983
17.024,-0.0385931545186718
17.026,-0.0391313575417635
17.028,-0.0386825168413888
17.03,-0.0369941879126011
17.032,-0.0344811976214325
17.034,-0.0322256442048932
17.036,-0.0313386376987318
17.038,-0.0329312881386968
17.04,-0.0381147055605367
17.042,-0.048
17.044,-0.0626784974835354
17.046,-0.0781623880003917
17.048,-0.0894440775305174
17.05,-0.0915159720538615
17.052,-0.0793704775503728
17.054,-0.048
17.056,0.00787945198275486
17.058,0.0946574592451774
17.06,0.219
17.062,0.381817728105234
17.064,0.561000000000002
17.066,0.731376282654542
17.068,0.878557782582414
17.07,0.990851141183019
17.072,1.05656299985575
17.074,1.064
17.076,1.00488859171392
17.078,0.884634459890632
17.08,0.712063098122032
17.082,0.496
17.084,0.254558087983522
17.086,0.043
17.088,-0.0893680600355242
17.09,-0.154215339725855
17.092,-0.178454949553258
17.094,-0.189
17.096,-0.207222774035877
17.098,-0.232332244580807
17.1,-0.257996557042236
17.102,-0.277883856827612
17.104,-0.285662289344385
17.106,-0.275
17.108,-0.243436904532212
17.11,-0.204
17.112,-0.169825574630218
17.114,-0.139
17.116,-0.107510796946915
17.118,-0.078
17.12,-0.0537956915439227
17.122,-0.0343156316944211
17.124,-0.018
17.126,-0.00368003270056166
17.128,0.00824880719840165
17.13,0.0170000000000001
17.132,0.0220597302817335
17.134,0.024004999718662
17.136,0.0236855142602354
17.138,0.0219509798559031
17.14,0.0196511024551151
17.142,0.0176355880073211
17.144,0.0167297140094783
17.146,0.0171969035512132
17.148,0.0187387253148218
17.15,0.0210323195301075
17.152,0.0237548264268736
17.154,0.0265833862349236
17.156,0.0291951391840608
17.158,0.0312672255040886
17.16,0.0324905874761291
17.162,0.0328736145616375
17.164,0.0327421434024014
17.166,0.0324358126915276
17.168,0.0322942611221227
17.17,0.0326571273872933
17.172,0.033864050180146
17.174,0.0362546681937876
17.176,0.0401436841055604
17.178,0.0452722722302258
17.18,0.0508080785199653
17.182,0.0558938129111955
17.184,0.0596998208139116
17.186,0.0620320635304039
17.188,0.0633321182552582
17.19,0.0640691976566383
17.192,0.0647125144027081
17.194,0.0657312811616315
17.196,0.0675947106015724
17.198,0.0707720153906946
17.2,0.075707707542456
17.202,0.0822781840120751
17.204,0.0897917266965311
17.206,0.0975319168380971
17.208,0.104782335679046
17.21,0.110850674447582
17.212,0.115599154048302
17.214,0.119444525062197
17.216,0.122827648056189
17.218,0.1261893835972
17.22,0.129961074483104
17.222,0.134355154823714
17.224,0.139365150040776
17.226,0.144975067786991
17.228,0.151180214652303
17.23,0.15823577278326
17.232,0.166656799883013
17.234,0.176969652591957
17.236,0.189615019787096
17.238,0.203063231787402
17.24,0.213945376139752
17.242,0.221822535704069
17.244,0.229271456416719
17.246,0.239
17.248,0.252792250946704
17.25,0.268737184831612
17.252,0.284
17.254,0.296733016402373
17.256,0.309037040410155
17.258,0.324
17.26,0.3435530184195
17.262,0.365
17.264,0.38471751296214
17.266,0.4
17.268,0.409951929731939
17.27,0.42
17.272,0.434849768110105
17.274,0.45
17.276,0.460110519769421
17.278,0.465692175534234
17.28,0.468718571414336
17.282,0.471163311529625
17.284,0.475
17.286,0.481537130450361
17.288,0.489422754525623
17.29,0.496639813375705
17.292,0.501171248150525
17.294,0.501
17.296,0.494957174166807
17.298,0.485266532264652
17.3,0.475
17.302,0.466376167431725
17.304,0.458200282028347
17.306,0.448424255610795
17.308,0.435
17.31,0.416718057527356
17.312,0.395723492566117
17.314,0.375
17.316,0.356409315249406
17.318,0.337325335881468
17.32,0.314
17.322,0.284481119319851
17.324,0.254
17.326,0.227801351245305
17.328,0.204
17.33,0.180063475698928
17.332,0.158
17.334,0.14025968249682
17.336,0.12651949230269
17.338,0.115763113410835
17.34,0.106974229814481
17.342,0.0991530840322818
17.344,0.0916807646677251
17.346,0.084319206409132
17.348,0.0768469024702515
17.35,0.0690487177674925
17.352,0.0608560663784479
17.354,0.0523469115418942
17.356,0.0436145721538932
17.358,0.0349589980668937
17.36,0.0268867700897307
17.362,0.0199134529858649
17.364,0.0145372349964884
17.366,0.0108566443506153
17.368,0.00857054926508249
17.37,0.00736044143445785
17.372,0.00690781255330947
17.374,0.00689415431620538
17.376,0.00700095841771364
17.378,0.00691791906911415
17.38,0.0065233883660587
17.382,0.00588437628857097
17.384,0.00507609533338665
17.386,0.00417375799724118
17.388,0.00325257677687024
17.39,0.00238776416900932
17.392,0
17.394,0
17.396,0
17.398,0
17.4,0
17.402,0
17.404,0
17.406,0
17.408,0
17.41,0
17.412,0
17.414,0
17.416,0
17.418,0
17.42,0
17.422,0
17.424,0
17.426,0
17.428,0
17.43,0
17.432,0
17.434,0
17.436,0
17.438,0
17.44,0
17.442,0
17.444,0
17.446,0
17.448,0
17.45,0
17.452,0
17.454,0
17.456,0
17.458,0
17.46,0
17.462,0
17.464,0
17.466,0
17.468,0
17.47,0
17.472,0
17.474,0
17.476,0
17.478,0
17.48,0
17.482,0
17.484,0
17.486,0
17.488,0
17.49,0
17.492,0
17.494,0
17.496,0
17.498,0
17.5,0
17.502,0
17.504,0
17.506,0
17.508,0
17.51,0
17.512,0
17.514,0
17.516,0
17.518,0
17.52,0
17.522,0
17.524,0
17.526,0
17.528,0
17.53,0
17.532,0
17.534,0
17.536,0
17.538,0
17.54,0
17.542,0
17.544,0
17.546,0
17.548,0
17.55,0
17.552,0
17.554,0
17.556,0
17.558,0
17.56,0
17.562,0
17.564,0
17.566,0
17.568,0
17.57,0
17.572,0
17.574,0
17.576,0
17.578,0
17.58,0
17.582,0
17.584,0
17.586,0
17.588,0
17.59,0
17.592,0
17.594,0
17.596,0
17.598,0
17.6,0
17.602,0
17.604,0
17.606,0
17.608,0
17.61,0
17.612,0
17.614,0
17.616,0
17.618,0
17.62,0
17.622,0
17.624,0
17.626,0
17.628,0
17.63,0
17.632,0
17.634,0
17.636,0
17.638,0
17.64,0
17.642,0
17.644,0
17.646,0
17.648,0
17.65,0
17.652,0
17.654,0
17.656,0
17.658,0
17.66,0
17.662,0
17.664,0
17.666,0
17.668,0
17.67,0
17.672,0
17.674,0
17.676,0
17.678,0
17.68,0
17.682,0
17.684,0
17.686,0
17.688,0
17.69,0
17.692,0
17.694,0
17.696,0
17.698,0
17.7,0
17.702,0
17.704,0
17.706,0
17.708,0
17.71,0
17.712,0
17.714,0
17.716,0
17.718,0
17.72,0
17.722,0
17.724,0
17.726,0
17.728,0
17.73,0
17.732,0
17.734,0
17.736,0
17.738,0
17.74,0
17.742,0
17.744,0
17.746,0
17.748,0
17.75,0
17.752,0
17.754,0
17.756,0
17.758,0
17.76,0
17.762,0
17.764,0
17.766,0
17.768,0
17.77,0
17.772,0
17.774,0
17.776,0
17.778,0
17.78,0
17.782,0
17.784,0
17.786,0
17.788,0
17.79,0
17.792,0
17.794,0
17.796,0
17.798,0
17.8,0
17.802,0
17.804,0
17.806,0
17.808,0
17.81,0
17.812,0
17.814,0
17.816,0
17.818,0
17.82,0
17.822,0
17.824,0
17.826,0
17.828,0
17.83,0
17.832,0
17.834,0
17.836,0
17.838,0
17.84,0
17.842,0
17.844,0
17.846,0
17.848,0
17.85,0
17.852,0
17.854,0
17.856,0
17.858,0
17.86,0
17.862,0
17.864,0
17.866,0
17.868,0
17.87,0
17.872,0
17.874,0
17.876,0
17.878,0
17.88,0
17.882,0
17.884,0
17.886,0
17.888,0
17.89,0
17.892,0
17.894,0
17.896,0
17.898,0
17.9,0
17.902,0
17.904,0
17.906,0
17.908,0
17.91,0
17.912,0
17.914,0
17.916,0
17.918,0
17.92,0
17.922,0
17.924,0
17.926,0
17.928,0
17.93,0
17.932,0
17.934,0
17.936,0
17.938,0
17.94,0
17.942,0
17.944,0
17.946,0
17.948,0
17.95,0
17.952,0
17.954,0
17.956,0
17.958,0
17.96,0
17.962,0
17.964,0
17.966,0
17.968,0
17.97,0
17.972,0
17.974,0
17.976,0
17.978,0
17.98,0
17.982,0
17.984,0
17.986,0
17.988,0
17.99,0
17.992,0
17.994,0
17.996,0
17.998,0
18,0
18.002,0
18.004,0
18.006,0
18.008,0
18.01,0
18.012,0
18.014,0
18.016,0
18.018,0
18.02,0
18.022,0
18.024,0
18.026,0
18.028,0
18.03,0
18.032,0
18.034,0
18.036,0
18.038,0
18.04,0
18.042,0
18.044,0
18.046,0
18.048,0
18.05,0
18.052,0
18.054,0
18.056,0
18.058,0
18.06,0
18.062,0
18.064,0
18.066,0
18.068,0
18.07,0
18.072,0
18.074,0
18.076,0
18.078,0
18.08,0
18.082,0
18.084,0
18.086,0
18.088,0
18.09,0
18.092,0
18.094,0
18.096,0
18.098,0
18.1,0
18.102,0
18.104,0
18.106,0
18.108,0
18.11,0
18.112,0
18.114,0
18.116,0
18.118,0
18.12,0
18.122,0
18.124,0
18.126,0
18.128,0
18.13,0
18.132,0
18.134,0
18.136,0
18.138,0
18.14,0
18.142,0
18.144,0
18.146,0
18.148,0
18.15,0
18.152,0
18.154,0
18.156,0
18.158,0
18.16,0
18.162,0
18.164,0
18.166,0
18.168,0
18.17,0
18.172,0
18.174,0
18.176,0
18.178,0
18.18,0
18.182,0
18.184,0
18.186,0
18.188,0
18.19,0
18.192,0
18.194,0
18.196,0
18.198,0
18.2,0
18.202,0
18.204,0
18.206,0
18.208,0
18.21,0
18.212,0
18.214,0
18.216,0
18.218,0
18.22,0
18.222,0
18.224,0
18.226,0
18.228,0
18.23,0
18.232,0
18.234,0
18.236,0
18.238,0
18.24,0
18.242,0
18.244,0
18.246,0
18.248,0
18.25,0
18.252,0
18.254,0
18.256,0
18.258,0
18.26,0
18.262,0
18.264,0
18.266,0
18.268,0
18.27,0
18.272,0
18.274,0
18.276,0
18.278,0
18.28,0
18.282,0
18.284,0
18.286,0
18.288,0
18.29,0
18.292,0
18.294,0
18.296,0
18.298,0
18.3,0
18.302,0
18.304,0
18.306,0
18.308,0
18.31,0
18.312,0
18.314,0
18.316,0
18.318,0
18.32,0
18.322,0
18.324,0
18.326,0
18.328,0
18.33,0
18.332,0
18.334,0
18.336,0
18.338,0
18.34,0
18.342,0
18.344,0
18.346,0
18.348,0
18.35,0
18.352,0
18.354,0
18.356,0
18.358,0
18.36,0
18.362,0
18.364,0
18.366,0
18.368,0
18.37,0
18.372,0
18.374,0
18.376,0
18.378,0
18.38,0
18.382,0
18.384,0
18.386,-0.00708460711772357
18.388,-0.00875867789606505
18.39,-0.0097707094803553
18.392,-0.0100503433721833
18.394,-0.0095272210731378
18.396,-0.00813098408480784
18.398,-0.00579127390878231
18.4,-0.00243773204665004
18.402,0.002
18.404,0.00759228072957896
18.406,0.0144094686404979
18.408,0.0225219222311678
18.41,0.032
18.412,0.0426795580987543
18.414,0.0534584432925861
18.416,0.063
18.418,0.0703086533523926
18.42,0.0757531513327301
18.422,0.0800433226368714
18.424,0.0838889959606751
18.426,0.088
18.428,0.0928813623772117
18.43,0.0982189064207034
18.432,0.103493654385375
18.434,0.108186628526127
18.436,0.11177885109786
18.438,0.113769020525728
18.44,0.114062387150768
18.442,0.112970753229892
18.444,0.11082359719027
18.446,0.107950397459071
18.448,0.104680632463465
18.45,0.101322448742521
18.452,0.0976933594089958
18.454,0.0931202441493368
18.456,0.0869086507618899
18.458,0.0783641270450015
18.46,0.0668822379065784
18.462,0.0539289417744214
18.464,0.0429403503473251
18.466,0.0351370667089276
18.468,0.02943416821815
18.47,0.0246658413406259
18.472,0.0201113077210971
18.474,0.0154948241834132
18.476,0.010559996907037
18.478,0.00505043207143152
18.48,-0.00126930799882813
18.482,-0.00815266964158817
18.484,-0.0148711078571161
18.486,-0.0206751215005672
18.488,-0.0248404509021935
18.49,-0.0272233903194679
18.492,-0.0282607879370846
18.494,-0.0284147334148342
18.496,-0.0281473164125075
18.498,-0.0279110227506538
18.5,-0.0279374499472761
18.502,-0.0282373072178306
18.504,-0.0288116999385322
18.506,-0.0296617334855958
18.508,-0.0307885132352366
18.51,-0.0321931445636694
18.512,-0.0338708461454447
18.514,-0.0356814425168278
18.516,-0.0373493640757983
18.518,-0.0385931545186718
18.52,-0.0391313575417635
18.522,-0.0386825168413888
18.524,-0.0369941879126011
18.526,-0.0344811976214325
18.528,-0.0322256442048932
18.53,-0.0313386376987318
18.532,-0.0329312881386968
18.534,-0.0381147055605367
18.536,-0.048
18.538,-0.0626784974835354
18.54,-0.0781623880003917
18.542,-0.0894440775305174
18.544,-0.0915159720538615
18.546,-0.0793704775503728
18.548,-0.048
18.55,0.00787945198275486
18.552,0.0946574592451774
18.554,0.219
18.556,0.381817728105234
18.558,0.561000000000002
18.56,0.731376282654542
18.562,0.878557782582414
18.564,0.990851141183019
18.566,1.05656299985575
18.568,1.064
18.57,1.00488859171392
18.572,0.884634459890632
