0
0
0
0
0
0
0
0
0
0
0
0
0
0
0
0
0
0
0
0
0
0
0
0
0
0
0
0
0
0
0
0
0
0
0
0
0
0
0
0
0
0
0
0
0
0
0
0
0
0
0
0
0
0
0
0
0
0
0
0
0
0
0
0
0
0
0
0
0
0
0
0
0
0
0
0
0
0
0
0
0
0
0
0
0
0
0
0
0
0
0
0
0
0
0
0
0
0
0
0
0
0
0
0
0
0
0
0
0
0
0
0
0
0
0
0
0
0
0
0
0
0
0
0
0
0
0
0
0
0
0
0
0
0
0
0
0
0
0
0
0
0
0
0
0
0
0
0
0
0
0
0
0
0
0
0
0
0
0
0
0
0
0
0
0
0
0
0
0
0
0
0
0
0
0
0
0
0
0
0
0
0
0
0
0
0
0
0
0
0
0
0
0
0
0
0
0
0
0
0
0
0
0
0
0
0
0
0
0
0
0
0
0
0
0
0
0
0
0
0
0
0
0
0
0
0
0
0
0
0
0
0
0
0
0
0
0
0
0
0
0
0
0
0
0
0
0
0
0
0
0
0
0
0
0
0
0
0
0
0
0
0
0
0
0
0
0
0
0
0
0
0
0
0
0
0
0
0
0
0
0
0
0
0
0
0
0
0
0
0
0
0
0
0
0
0
0
0
0
0
0
0
0
0
0
0
0
0
0
0
0
0
0
0
0
0
0
0
0
0
0
0
0
0
0
0
0
0
0
0
0
0
0
0
0
0
0
0
0
0
0
0
0
0
0
0
0
0
0
0
0
0
0
0
0
0
0
0
0
0
0
0
0
0
0
0
0
0
0
0
0
0
0
0
0
0
0
0
0
0
0
0
0
0
0
0
0
0
0
0
0
0
0
0
0
0
0
0
0
0
0
0
0
0
0
0
0
0
0
0
0
0
0
0
0
0
0
0
0
0
0
0
0
0
0
0
0
0
0
0
0
0
0
0
0
0
0
0
0
0
0
0
0
0
0
0
0
0
0
0
0
0
0
0
0
0
0
0
0
0
0
0
0
0
0
0
0
0
0
0
0
0
0
0
0
0
0
0
0
0
0
0
0
0
0
0
0
0
0
0
0
0
0
0
0
0
0
0
0
0
0
0
0
0
0
0
0
0
0
0
0
0
0
0
0
0
0
0
0
0
0
0
0
0
0
0
0
0
0
0
0
0
0
0
0
0
0
0
0
0
0
0
0
0
0
0
0
0
0
0
0
0
0
0
0
0
0
0
0
0
0
0
0
0
0
0
0
0
0
0
0
0
0
0
0
0
0
0
0
0
0
0
0
0
0
0
0
0
0
0
0
0
0
0
0
0
0
0
0
0
0
0
0
0
0
0
0
0
0
0
0
0
0
0
0
0
0
0
0
0
0
0
0
0
0
0
0
0
0
0
0
0
0
0
0
0
0
0
0
0
0
0
0
0
0
0
0
0
0
0
0
0
0
0
0
0
0
0
0
0
0
0
0
0
0
0
0
0
0
0
0
0
0
0
0
0
0
0
0
0
0
0
0
0
0
0
0
0
0
0
-0.003411222
-0.002625583
-0.001954161
-0.001330946
-0.000689931
3.49E-05
0.000909534
0.002
0.0033723
0.005092441
0.007226433
0.009840283
0.013
0.016702565
0.020668854
0.024550716
0.028
0.030767482
0.032999647
0.03494191
0.036839684
0.038938381
0.041483415
0.044703773
0.048450638
0.052197387
0.055400972
0.057518345
0.058028978
0.056930293
0.054737662
0.05198898
0.049222139
0.046960597
0.045395813
0.044387245
0.043779918
0.043418856
0.043149083
0.042812251
0.042172466
0.040916284
0.038726891
0.035287473
0.030304953
0.024032215
0.017268101
0.010835194
0.005534941
0.001682716
-0.000892179
-0.002381577
-0.00297731
-0.002871028
-0.00225019
-0.001298063
-0.000197731
0.000867721
0.001715208
0.002169013
0.002222905
0.002040132
0.001791313
0.001647067
0.001778012
0.002339869
0.003145692
0.003665872
0.003355901
0.001671271
-0.001932527
-0.008
-0.016610081
-0.025979403
-0.033859024
-0.038
-0.037912588
-0.040143838
-0.053
-0.078662121
-0.094810442
-0.073
0.002679539
0.098
0.178117881
0.255866881
0.356
0.491529085
0.628501384
0.72122299
0.724
0.614895432
0.467
0.35676349
0.279044293
0.208302949
0.119
-0.002097944
-0.119
-0.193585616
-0.228439848
-0.236324157
-0.23
-0.219658788
-0.205211733
-0.184
-0.155658858
-0.129
-0.112300491
-0.102522463
-0.093799311
-0.080477968
-0.061816681
-0.041985011
-0.025253201
-0.013295874
-0.005192032
9.22E-05
0.003573653
0.005879332
0.007246198
0.007894281
0.00804361
0.00791331
0.007701766
0.007586613
0.007744587
0.008352425
0.009586862
0.011624634
0.014630386
0.018490697
0.02281408
0.027196958
0.031235752
0.034539485
0.037006956
0.038826743
0.040200026
0.041327981
0.042411786
0.043644358
0.045028622
0.046377511
0.047495697
0.048187853
0.04825865
0.04752695
0.046137921
0.044563048
0.043287999
0.042798445
0.04356223
0.045637222
0.048671314
0.052294571
0.05613706
0.059828848
0.063
0.065399795
0.067254358
0.068909022
0.070709125
0.073
0.076041844
0.079754291
0.083971835
0.088528972
0.093260195
0.098
0.1026066
0.107033088
0.111256276
0.115252976
0.119
0.12259873
0.126648822
0.131874504
0.139
0.148378514
0.158879153
0.169
0.177866376
0.187112543
0.199
0.214572149
0.23
0.241349544
0.249139084
0.255
0.260301407
0.265363355
0.270243625
0.275
0.279628771
0.283880263
0.28744331
0.290006744
0.291259401
0.290890113
0.288611752
0.284690076
0.279943727
0.275215385
0.271347731
0.269130329
0.268131032
0.26669599
0.263118231
0.255690784
0.242861715
0.226644879
0.212397476
0.20051535
0.186501506
0.170778094
0.158718878
0.151551512
0.146134001
0.139134362
0.127379248
0.111343932
0.095043873
0.080159165
0.065945262
0.053144408
0.044017763
0.039140635
0.037333122
0.03733901
0.037902085
0.03779931
0.036570751
0.034519579
0.031982142
0.029294788
0.026784998
0.02457636
0.02258856
0.020732421
0.018918765
0.017062091
0.015161469
0.013300536
0.011566608
0.010046999
0.008829025
0.008
0.007609817
0.007558673
0
0
0
0
0
0
0
0
0
0
0
0
0
0
0
0
0
0
0
0
0
0
0
0
0
0
0
0
0
0
0
0
0
0
0
0
0
0
0
0
0
0
0
0
0
0
0
0
0
0
0
0
0
0
0
0
0
0
0
0
0
0
0
0
0
0
0
0
0
0
0
0
0
0
0
0
0
0
0
0
0
0
0
0
0
0
0
0
0
0
0
0
0
0
0
0
0
0
0
0
0
0
0
0
0
0
0
0
0
0
0
0
0
0
0
0
0
0
0
0
0
0
0
0
0
0
0
0
0
0
0
0
0
0
0
0
0
0
0
0
0
0
0
0
0
0
0
0
0
0
0
0
0
0
0
0
0
0
0
0
0
0
0
0
0
0
0
0
0
0
0
0
0
0
0
0
0
0
0
0
0
0
0
0
0
0
0
0
0
0
0
0
0
0
0
0
0
0
0
0
0
0
0
0
0
0
0
0
0
0
0
0
0
0
0
0
0
0
0
0
0
0
0
0
0
0
0
0
0
0
0
0
0
0
0
0
0
0
0
0
0
0
0
0
0
0
0
0
0
0
0
0
0
0
0
0
0
0
0
0
0
0
0
0
0
0
0
0
0
0
0
0
0
0
0
0
0
0
0
0
0
0
0
0
0
0
0
0
0
0
0
0
0
0
0
0
0
0
0
0
0
0
0
0
0
0
0
0
0
0
0
0
0
0
0
0
0
0
0
0
0
0
0
0
0
0
0
0
0
0
0
0
0
0
0
0
0
0
0
0
0
0
0
0
0
0
0
0
0
0
0
0
0
0
0
0
0
0
0
0
0
0
0
0
0
0
0
0
0
0
0
0
0
0
0
0
0
0
0
0
0
0
0
0
0
0
0
0
0
0
0
0
0
0
0
0
0
0
0
0
0
0
0
0
0
0
0
0
0
0
0
0
0
0
0
0
0
0
0
0
0
0
0
0
0
0
0
0
0
0
0
0
0
0
0
0
0
0
0
0
0
0
0
0
0
0
0
0
0
0
0
0
0
0
0
0
0
0
0
0
0
0
0
0
0
0
0
0
0
0
0
0
0
0
0
0
0
0
0
0
0
0
0
0
0
0
0
0
0
0
0
0
0
0
0
0
0
0
0
0
0
0
0
0
0
0
0
0
0
0
0
0
0
0
0
0
0
0
0
0
0
0
0
0
0
0
0
0
0
0
0
0
0
0
0
0
0
0
0
0
0
0
0
0
0
0
0
0
0
0
0
0
0
0
0
0
0
-0.003411222
-0.002625583
-0.001954161
-0.001330946
-0.000689931
3.49E-05
0.000909534
0.002
0.0033723
0.005092441
0.007226433
0.009840283
0.013
0.016702565
0.020668854
0.024550716
0.028
0.030767482
0.032999647
0.03494191
0.036839684
0.038938381
0.041483415
0.044703773
0.048450638
0.052197387
0.055400972
0.057518345
0.058028978
0.056930293
0.054737662
0.05198898
0.049222139
0.046960597
0.045395813
0.044387245
0.043779918
0.043418856
0.043149083
0.042812251
0.042172466
0.040916284
0.038726891
0.035287473
0.030304953
0.024032215
0.017268101
0.010835194
0.005534941
0.001682716
-0.000892179
-0.002381577
-0.00297731
-0.002871028
-0.00225019
-0.001298063
-0.000197731
0.000867721
0.001715208
0.002169013
0.002222905
0.002040132
0.001791313
0.001647067
0.001778012
0.002339869
0.003145692
0.003665872
0.003355901
0.001671271
-0.001932527
-0.008
-0.016610081
-0.025979403
-0.033859024
-0.038
-0.037912588
-0.040143838
-0.053
-0.078662121
-0.094810442
-0.073
0.002679539
0.098
0.178117881
0.255866881
0.356
0.491529085
0.628501384
0.72122299
0.724
0.614895432
0.467
0.35676349
0.279044293
0.208302949
0.119
-0.002097944
-0.119
-0.193585616
-0.228439848
-0.236324157
-0.23
-0.219658788
-0.205211733
-0.184
-0.155658858
-0.129
-0.112300491
-0.102522463
-0.093799311
-0.080477968
-0.061816681
-0.041985011
-0.025253201
-0.013295874
-0.005192032
9.22E-05
0.003573653
0.005879332
0.007246198
0.007894281
0.00804361
0.00791331
0.007701766
0.007586613
0.007744587
0.008352425
0.009586862
0.011624634
0.014630386
0.018490697
0.02281408
0.027196958
0.031235752
0.034539485
0.037006956
0.038826743
0.040200026
0.041327981
0.042411786
0.043644358
0.045028622
0.046377511
0.047495697
0.048187853
0.04825865
0.04752695
0.046137921
0.044563048
0.043287999
0.042798445
0.04356223
0.045637222
0.048671314
0.052294571
0.05613706
0.059828848
0.063
0.065399795
0.067254358
0.068909022
0.070709125
0.073
0.076041844
0.079754291
0.083971835
0.088528972
0.093260195
0.098
0.1026066
0.107033088
0.111256276
0.115252976
0.119
0.12259873
0.126648822
0.131874504
0.139
0.148378514
0.158879153
0.169
0.177866376
0.187112543
0.199
0.214572149
0.23
0.241349544
0.249139084
0.255
0.260301407
0.265363355
0.270243625
0.275
0.279628771
0.283880263
0.28744331
0.290006744
0.291259401
0.290890113
0.288611752
0.284690076
0.279943727
0.275215385
0.271347731
0.269130329
0.268131032
0.26669599
0.263118231
0.255690784
0.242861715
0.226644879
0.212397476
0.20051535
0.186501506
0.170778094
0.158718878
0.151551512
0.146134001
0.139134362
0.127379248
0.111343932
0.095043873
0.080159165
0.065945262
0.053144408
0.044017763
0.039140635
0.037333122
0.03733901
0.037902085
0.03779931
0.036570751
0.034519579
0.031982142
0.029294788
0.026784998
0.02457636
0.02258856
0.020732421
0.018918765
0.017062091
0.015161469
0.013300536
0.011566608
0.010046999
0.008829025
0.008
0.007609817
0.007558673
0
0
0
0
0
0
0
0
0
0
0
0
0
0
0
0
0
0
0
0
0
0
0
0
0
0
0
0
0
0
0
0
0
0
0
0
0
0
0
0
0
0
0
0
0
0
0
0
0
0
0
0
0
0
0
0
0
0
0
0
0
0
0
0
0
0
0
0
0
0
0
0
0
0
0
0
0
0
0
0
0
0
0
0
0
0
0
0
0
0
0
0
0
0
0
0
0
0
0
0
0
0
0
0
0
0
0
0
0
0
0
0
0
0
0
0
0
0
0
0
0
0
0
0
0
0
0
0
0
0
0
0
0
0
0
0
0
0
0
0
0
0
0
0
0
0
0
0
0
0
0
0
0
0
0
0
0
0
0
0
0
0
0
0
0
0
0
0
0
0
0
0
0
0
0
0
0
0
0
0
0
0
0
0
0
0
0
0
0
0
0
0
0
0
0
0
0
0
0
0
0
0
0
0
0
0
0
0
0
0
0
0
0
0
0
0
0
0
0
0
0
0
0
0
0
0
0
0
0
0
0
0
0
0
0
0
0
0
0
0
0
0
0
0
0
0
0
0
0
0
0
0
0
0
0
0
0
0
0
0
0
0
0
0
0
0
0
0
0
0
0
0
0
0
0
0
0
0
0
0
0
0
0
0
0
0
0
0
0
0
0
0
0
0
0
0
0
0
0
0
0
0
0
0
0
0
0
0
0
0
0
0
0
0
0
0
0
0
0
0
0
0
0
0
0
0
0
0
0
0
0
0
0
0
0
0
0
0
0
0
0
0
0
0
0
0
0
0
0
0
0
0
0
0
0
0
0
0
0
0
0
0
0
0
0
0
0
0
0
0
0
0
0
0
0
0
0
0
0
0
0
0
0
0
0
0
0
0
0
0
0
0
0
0
0
0
0
0
0
0
0
0
0
0
0
0
0
0
0
0
0
0
0
0
0
0
0
0
0
0
0
0
0
0
0
0
0
0
0
0
0
0
0
0
0
0
0
0
0
0
0
0
0
0
0
0
0
0
0
0
0
0
0
0
0
0
0
0
0
0
0
0
0
0
0
0
0
0
0
0
0
0
0
0
0
0
0
0
0
0
0
0
0
0
0
0
0
0
0
0
0
0
0
0
0
0
0
0
0
0
0
0
0
0
0
0
0
0
0
0
0
0
0
0
0
0
0
0
0
0
0
0
0
0
0
0
0
0
0
0
0
0
0
0
0
0
0
0
0
0
0
0
0
0
0
0
0
0
-0.003411222
-0.002625583
-0.001954161
-0.001330946
-0.000689931
3.49E-05
0.000909534
0.002
0.0033723
0.005092441
0.007226433
0.009840283
0.013
0.016702565
0.020668854
0.024550716
0.028
0.030767482
0.032999647
0.03494191
0.036839684
0.038938381
0.041483415
0.044703773
0.048450638
0.052197387
0.055400972
0.057518345
0.058028978
0.056930293
0.054737662
0.05198898
0.049222139
0.046960597
0.045395813
0.044387245
0.043779918
0.043418856
0.043149083
0.042812251
0.042172466
0.040916284
0.038726891
0.035287473
0.030304953
0.024032215
0.017268101
0.010835194
0.005534941
0.001682716
-0.000892179
-0.002381577
-0.00297731
-0.002871028
-0.00225019
-0.001298063
-0.000197731
0.000867721
0.001715208
0.002169013
0.002222905
0.002040132
0.001791313
0.001647067
0.001778012
0.002339869
0.003145692
0.003665872
0.003355901
0.001671271
-0.001932527
-0.008
-0.016610081
-0.025979403
-0.033859024
-0.038
-0.037912588
-0.040143838
-0.053
-0.078662121
-0.094810442
-0.073
0.002679539
0.098
0.178117881
0.255866881
0.356
0.491529085
0.628501384
0.72122299
0.724
0.614895432
0.467
0.35676349
0.279044293
0.208302949
0.119
-0.002097944
-0.119
-0.193585616
-0.228439848
-0.236324157
-0.23
-0.219658788
-0.205211733
-0.184
-0.155658858
-0.129
-0.112300491
-0.102522463
-0.093799311
-0.080477968
-0.061816681
-0.041985011
-0.025253201
-0.013295874
-0.005192032
9.22E-05
0.003573653
0.005879332
0.007246198
0.007894281
0.00804361
0.00791331
0.007701766
0.007586613
0.007744587
0.008352425
0.009586862
0.011624634
0.014630386
0.018490697
0.02281408
0.027196958
0.031235752
0.034539485
0.037006956
0.038826743
0.040200026
0.041327981
0.042411786
0.043644358
0.045028622
0.046377511
0.047495697
0.048187853
0.04825865
0.04752695
0.046137921
0.044563048
0.043287999
0.042798445
0.04356223
0.045637222
0.048671314
0.052294571
0.05613706
0.059828848
0.063
0.065399795
0.067254358
0.068909022
0.070709125
0.073
0.076041844
0.079754291
0.083971835
0.088528972
0.093260195
0.098
0.1026066
0.107033088
0.111256276
0.115252976
0.119
0.12259873
0.126648822
0.131874504
0.139
0.148378514
0.158879153
0.169
0.177866376
0.187112543
0.199
0.214572149
0.23
0.241349544
0.249139084
0.255
0.260301407
0.265363355
0.270243625
0.275
0.279628771
0.283880263
0.28744331
0.290006744
0.291259401
0.290890113
0.288611752
0.284690076
0.279943727
0.275215385
0.271347731
0.269130329
0.268131032
0.26669599
0.263118231
0.255690784
0.242861715
0.226644879
0.212397476
0.20051535
0.186501506
0.170778094
0.158718878
0.151551512
0.146134001
0.139134362
0.127379248
0.111343932
0.095043873
0.080159165
0.065945262
0.053144408
0.044017763
0.039140635
0.037333122
0.03733901
0.037902085
0.03779931
0.036570751
0.034519579
0.031982142
0.029294788
0.026784998
0.02457636
0.02258856
0.020732421
0.018918765
0.017062091
0.015161469
0.013300536
0.011566608
0.010046999
0.008829025
0.008
0.007609817
0.007558673
0
0
0
0
0
0
0
0
0
0
0
0
0
0
0
0
0
0
0
0
0
0
0
0
0
0
0
0
0
0
0
0
0
0
0
0
0
0
0
0
0
0
0
0
0
0
0
0
0
0
0
0
0
0
0
0
0
0
0
0
0
0
0
0
0
0
0
0
0
0
0
0
0
0
0
0
0
0
0
0
0
0
0
0
0
0
0
0
0
0
0
0
0
0
0
0
0
0
0
0
0
0
0
0
0
0
0
0
0
0
0
0
0
0
0
0
0
0
0
0
0
0
0
0
0
0
0
0
0
0
0
0
0
0
0
0
0
0
0
0
0
0
0
0
0
0
0
0
0
0
0
0
0
0
0
0
0
0
0
0
0
0
0
0
0
0
0
0
0
0
0
0
0
0
0
0
0
0
0
0
0
0
0
0
0
0
0
0
0
0
0
0
0
0
0
0
0
0
0
0
0
0
0
0
0
0
0
0
0
0
0
0
0
0
0
0
0
0
0
0
0
0
0
0
0
0
0
0
0
0
0
0
0
0
0
0
0
0
0
0
0
0
0
0
0
0
0
0
0
0
0
0
0
0
0
0
0
0
0
0
0
0
0
0
0
0
0
0
0
0
0
0
0
0
0
0
0
0
0
0
0
0
0
0
0
0
0
0
0
0
0
0
0
0
0
0
0
0
0
0
0
0
0
0
0
0
0
0
0
0
0
0
0
0
0
0
0
0
0
0
0
0
0
0
0
0
0
0
0
0
0
0
0
0
0
0
0
0
0
0
0
0
0
0
0
0
0
0
0
0
0
0
0
0
0
0
0
0
0
0
0
0
0
0
0
0
0
0
0
0
0
0
0
0
0
0
0
0
0
0
0
0
0
0
0
0
0
0
0
0
0
0
0
0
0
0
0
0
0
0
0
0
0
0
0
0
0
0
0
0
0
0
0
0
0
0
0
0
0
0
0
0
0
0
0
0
0
0
0
0
0
0
0
0
0
0
0
0
0
0
0
0
0
0
0
0
0
0
0
0
0
0
0
0
0
0
0
0
0
0
0
0
0
0
0
0
0
0
0
0
0
0
0
0
0
0
0
0
0
0
0
0
0
0
0
0
0
0
0
0
0
0
0
0
0
0
0
0
0
0
0
0
0
0
0
0
0
0
0
0
0
0
0
0
0
0
0
0
0
0
0
0
0
0
0
0
0
0
0
0
0
0
0
0
0
0
0
0
0
0
-0.003411222
-0.002625583
-0.001954161
-0.001330946
-0.000689931
3.49E-05
0.000909534
0.002
0.0033723
0.005092441
0.007226433
0.009840283
0.013
0.016702565
0.020668854
0.024550716
0.028
0.030767482
0.032999647
0.03494191
0.036839684
0.038938381
0.041483415
0.044703773
0.048450638
0.052197387
0.055400972
0.057518345
0.058028978
0.056930293
0.054737662
0.05198898
0.049222139
0.046960597
0.045395813
0.044387245
0.043779918
0.043418856
0.043149083
0.042812251
0.042172466
0.040916284
0.038726891
0.035287473
0.030304953
0.024032215
0.017268101
0.010835194
0.005534941
0.001682716
-0.000892179
-0.002381577
-0.00297731
-0.002871028
-0.00225019
-0.001298063
-0.000197731
0.000867721
0.001715208
0.002169013
0.002222905
0.002040132
0.001791313
0.001647067
0.001778012
0.002339869
0.003145692
0.003665872
0.003355901
0.001671271
-0.001932527
-0.008
-0.016610081
-0.025979403
-0.033859024
-0.038
-0.037912588
-0.040143838
-0.053
-0.078662121
-0.094810442
-0.073
0.002679539
0.098
0.178117881
0.255866881
0.356
0.491529085
0.628501384
0.72122299
0.724
0.614895432
0.467
0.35676349
0.279044293
0.208302949
0.119
-0.002097944
-0.119
-0.193585616
-0.228439848
-0.236324157
-0.23
-0.219658788
-0.205211733
-0.184
-0.155658858
-0.129
-0.112300491
-0.102522463
-0.093799311
-0.080477968
-0.061816681
-0.041985011
-0.025253201
-0.013295874
-0.005192032
9.22E-05
0.003573653
0.005879332
0.007246198
0.007894281
0.00804361
0.00791331
0.007701766
0.007586613
0.007744587
0.008352425
0.009586862
0.011624634
0.014630386
0.018490697
0.02281408
0.027196958
0.031235752
0.034539485
0.037006956
0.038826743
0.040200026
0.041327981
0.042411786
0.043644358
0.045028622
0.046377511
0.047495697
0.048187853
0.04825865
0.04752695
0.046137921
0.044563048
0.043287999
0.042798445
0.04356223
0.045637222
0.048671314
0.052294571
0.05613706
0.059828848
0.063
0.065399795
0.067254358
0.068909022
0.070709125
0.073
0.076041844
0.079754291
0.083971835
0.088528972
0.093260195
0.098
0.1026066
0.107033088
0.111256276
0.115252976
0.119
0.12259873
0.126648822
0.131874504
0.139
0.148378514
0.158879153
0.169
0.177866376
0.187112543
0.199
0.214572149
0.23
0.241349544
0.249139084
0.255
0.260301407
0.265363355
0.270243625
0.275
0.279628771
0.283880263
0.28744331
0.290006744
0.291259401
0.290890113
0.288611752
0.284690076
0.279943727
0.275215385
0.271347731
0.269130329
0.268131032
0.26669599
0.263118231
0.255690784
0.242861715
0.226644879
0.212397476
0.20051535
0.186501506
0.170778094
0.158718878
0.151551512
0.146134001
0.139134362
0.127379248
0.111343932
0.095043873
0.080159165
0.065945262
0.053144408
0.044017763
0.039140635
0.037333122
0.03733901
0.037902085
0.03779931
0.036570751
0.034519579
0.031982142
0.029294788
0.026784998
0.02457636
0.02258856
0.020732421
0.018918765
0.017062091
0.015161469
0.013300536
0.011566608
0.010046999
0.008829025
0.008
0.007609817
0.007558673
0
0
0
0
0
0
0
0
0
0
0
0
0
0
0
0
0
0
0
0
0
0
0
0
0
0
0
0
0
0
0
0
0
0
0
0
0
0
0
0
0
0
0
0
0
0
0
0
0
0
0
0
0
0
0
0
0
0
0
0
0
0
0
0
0
0
0
0
0
0
0
0
0
0
0
0
0
0
0
0
0
0
0
0
0
0
0
0
0
0
0
0
0
0
0
0
0
0
0
0
0
0
0
0
0
0
0
0
0
0
0
0
0
0
0
0
0
0
0
0
0
0
0
0
0
0
0
0
0
0
0
0
0
0
0
0
0
0
0
0
0
0
0
0
0
0
0
0
0
0
0
0
0
0
0
0
0
0
0
0
0
0
0
0
0
0
0
0
0
0
0
0
0
0
0
0
0
0
0
0
0
0
0
0
0
0
0
0
0
0
0
0
0
0
0
0
0
0
0
0
0
0
0
0
0
0
0
0
0
0
0
0
0
0
0
0
0
0
0
0
0
0
0
0
0
0
0
0
0
0
0
0
0
0
0
0
0
0
0
0
0
0
0
0
0
0
0
0
0
0
0
0
0
0
0
0
0
0
0
0
0
0
0
0
0
0
0
0
0
0
0
0
0
0
0
0
0
0
0
0
0
0
0
0
0
0
0
0
0
0
0
0
0
0
0
0
0
0
0
0
0
0
0
0
0
0
0
0
0
0
0
0
0
0
0
0
0
0
0
0
0
0
0
0
0
0
0
0
0
0
0
0
0
0
0
0
0
0
0
0
0
0
0
0
0
0
0
0
0
0
0
0
0
0
0
0
0
0
0
0
0
0
0
0
0
0
0
0
0
0
0
0
0
0
0
0
0
0
0
0
0
0
0
0
0
0
0
0
0
0
0
0
0
0
0
0
0
0
0
0
0
0
0
0
0
0
0
0
0
0
0
0
0
0
0
0
0
0
0
0
0
0
0
0
0
0
0
0
0
0
0
0
0
0
0
0
0
0
0
0
0
0
0
0
0
0
0
0
0
0
0
0
0
0
0
0
0
0
0
0
0
0
0
0
0
0
0
0
0
0
0
0
0
0
0
0
0
0
0
0
0
0
0
0
0
0
0
0
0
0
0
0
0
0
0
0
0
0
0
0
0
0
0
0
0
0
0
0
0
0
0
0
0
0
0
0
0
0
0
0
0
0
0
0
0
0
0
0
0
0
0
0
0
-0.003411222
-0.002625583
-0.001954161
-0.001330946
-0.000689931
3.49E-05
0.000909534
0.002
0.0033723
0.005092441
0.007226433
0.009840283
0.013
0.016702565
0.020668854
0.024550716
0.028
0.030767482
0.032999647
0.03494191
0.036839684
0.038938381
0.041483415
0.044703773
0.048450638
0.052197387
0.055400972
0.057518345
0.058028978
0.056930293
0.054737662
0.05198898
0.049222139
0.046960597
0.045395813
0.044387245
0.043779918
0.043418856
0.043149083
0.042812251
0.042172466
0.040916284
0.038726891
0.035287473
0.030304953
0.024032215
0.017268101
0.010835194
0.005534941
0.001682716
-0.000892179
-0.002381577
-0.00297731
-0.002871028
-0.00225019
-0.001298063
-0.000197731
0.000867721
0.001715208
0.002169013
0.002222905
0.002040132
0.001791313
0.001647067
0.001778012
0.002339869
0.003145692
0.003665872
0.003355901
0.001671271
-0.001932527
-0.008
-0.016610081
-0.025979403
-0.033859024
-0.038
-0.037912588
-0.040143838
-0.053
-0.078662121
-0.094810442
-0.073
0.002679539
0.098
0.178117881
0.255866881
0.356
0.491529085
0.628501384
0.72122299
0.724
0.614895432
0.467
0.35676349
0.279044293
0.208302949
0.119
-0.002097944
-0.119
-0.193585616
-0.228439848
-0.236324157
-0.23
-0.219658788
-0.205211733
-0.184
-0.155658858
-0.129
-0.112300491
-0.102522463
-0.093799311
-0.080477968
-0.061816681
-0.041985011
-0.025253201
-0.013295874
-0.005192032
9.22E-05
0.003573653
0.005879332
0.007246198
0.007894281
0.00804361
0.00791331
0.007701766
0.007586613
0.007744587
0.008352425
0.009586862
0.011624634
0.014630386
0.018490697
0.02281408
0.027196958
0.031235752
0.034539485
0.037006956
0.038826743
0.040200026
0.041327981
0.042411786
0.043644358
0.045028622
0.046377511
0.047495697
0.048187853
0.04825865
0.04752695
0.046137921
0.044563048
0.043287999
0.042798445
0.04356223
0.045637222
0.048671314
0.052294571
0.05613706
0.059828848
0.063
0.065399795
0.067254358
0.068909022
0.070709125
0.073
0.076041844
0.079754291
0.083971835
0.088528972
0.093260195
0.098
0.1026066
0.107033088
0.111256276
0.115252976
0.119
0.12259873
0.126648822
0.131874504
0.139
0.148378514
0.158879153
0.169
0.177866376
0.187112543
0.199
0.214572149
0.23
0.241349544
0.249139084
0.255
0.260301407
0.265363355
0.270243625
0.275
0.279628771
0.283880263
0.28744331
0.290006744
0.291259401
0.290890113
0.288611752
0.284690076
0.279943727
0.275215385
0.271347731
0.269130329
0.268131032
0.26669599
0.263118231
0.255690784
0.242861715
0.226644879
0.212397476
0.20051535
0.186501506
0.170778094
0.158718878
0.151551512
0.146134001
0.139134362
0.127379248
0.111343932
0.095043873
0.080159165
0.065945262
0.053144408
0.044017763
0.039140635
0.037333122
0.03733901
0.037902085
0.03779931
0.036570751
0.034519579
0.031982142
0.029294788
0.026784998
0.02457636
0.02258856
0.020732421
0.018918765
0.017062091
0.015161469
0.013300536
0.011566608
0.010046999
0.008829025
0.008
0.007609817
0.007558673
0
0
0
0
0
0
0
0
0
0
0
0
0
0
0
0
0
0
0
0
0
0
0
0
0
0
0
0
0
0
0
0
0
0
0
0
0
0
0
0
0
0
0
0
0
0
0
0
0
0
0
0
0
0
0
0
0
0
0
0
0
0
0
0
0
0
0
0
0
0
0
0
0
0
0
0
0
0
0
0
0
0
0
0
0
0
0
0
0
0
0
0
0
0
0
0
0
0
0
0
0
0
0
0
0
0
0
0
0
0
0
0
0
0
0
0
0
0
0
0
0
0
0
0
0
0
0
0
0
0
0
0
0
0
0
0
0
0
0
0
0
0
0
0
0
0
0
0
0
0
0
0
0
0
0
0
0
0
0
0
0
0
0
0
0
0
0
0
0
0
0
0
0
0
0
0
0
0
0
0
0
0
0
0
0
0
0
0
0
0
0
0
0
0
0
0
0
0
0
0
0
0
0
0
0
0
0
0
0
0
0
0
0
0
0
0
0
0
0
0
0
0
0
0
0
0
0
0
0
0
0
0
0
0
0
0
0
0
0
0
0
0
0
0
0
0
0
0
0
0
0
0
0
0
0
0
0
0
0
0
0
0
0
0
0
0
0
0
0
0
0
0
0
0
0
0
0
0
0
0
0
0
0
0
0
0
0
0
0
0
0
0
0
0
0
0
0
0
0
0
0
0
0
0
0
0
0
0
0
0
0
0
0
0
0
0
0
0
0
0
0
0
0
0
0
0
0
0
0
0
0
0
0
0
0
0
0
0
0
0
0
0
0
0
0
0
0
0
0
0
0
0
0
0
0
0
0
0
0
0
0
0
0
0
0
0
0
0
0
0
0
0
0
0
0
0
0
0
0
0
0
0
0
0
0
0
0
0
0
0
0
0
0
0
0
0
0
0
0
0
0
0
0
0
0
0
0
0
0
0
0
0
0
0
0
0
0
0
0
0
0
0
0
0
0
0
0
0
0
0
0
0
0
0
0
0
0
0
0
0
0
0
0
0
0
0
0
0
0
0
0
0
0
0
0
0
0
0
0
0
0
0
0
0
0
0
0
0
0
0
0
0
0
0
0
0
0
0
0
0
0
0
0
0
0
0
0
0
0
0
0
0
0
0
0
0
0
0
0
0
0
0
0
0
0
0
0
0
0
0
0
0
0
0
0
0
0
0
0
0
0
0
0
0
0
0
-0.003411222
-0.002625583
-0.001954161
-0.001330946
-0.000689931
3.49E-05
0.000909534
0.002
0.0033723
0.005092441
0.007226433
0.009840283
0.013
0.016702565
0.020668854
0.024550716
0.028
0.030767482
0.032999647
0.03494191
0.036839684
0.038938381
0.041483415
0.044703773
0.048450638
0.052197387
0.055400972
0.057518345
0.058028978
0.056930293
0.054737662
0.05198898
0.049222139
0.046960597
0.045395813
0.044387245
0.043779918
0.043418856
0.043149083
0.042812251
0.042172466
0.040916284
0.038726891
0.035287473
0.030304953
0.024032215
0.017268101
0.010835194
0.005534941
0.001682716
-0.000892179
-0.002381577
-0.00297731
-0.002871028
-0.00225019
-0.001298063
-0.000197731
0.000867721
0.001715208
0.002169013
0.002222905
0.002040132
0.001791313
0.001647067
0.001778012
0.002339869
0.003145692
0.003665872
0.003355901
0.001671271
-0.001932527
-0.008
-0.016610081
-0.025979403
-0.033859024
-0.038
-0.037912588
-0.040143838
-0.053
-0.078662121
-0.094810442
-0.073
0.002679539
0.098
0.178117881
0.255866881
0.356
0.491529085
0.628501384
0.72122299
0.724
0.614895432
0.467
0.35676349
0.279044293
0.208302949
0.119
-0.002097944
-0.119
-0.193585616
-0.228439848
-0.236324157
-0.23
-0.219658788
-0.205211733
-0.184
-0.155658858
-0.129
-0.112300491
-0.102522463
-0.093799311
-0.080477968
-0.061816681
-0.041985011
-0.025253201
-0.013295874
-0.005192032
9.22E-05
0.003573653
0.005879332
0.007246198
0.007894281
0.00804361
0.00791331
0.007701766
0.007586613
0.007744587
0.008352425
0.009586862
0.011624634
0.014630386
0.018490697
0.02281408
0.027196958
0.031235752
0.034539485
0.037006956
0.038826743
0.040200026
0.041327981
0.042411786
0.043644358
0.045028622
0.046377511
0.047495697
0.048187853
0.04825865
0.04752695
0.046137921
0.044563048
0.043287999
0.042798445
0.04356223
0.045637222
0.048671314
0.052294571
0.05613706
0.059828848
0.063
0.065399795
0.067254358
0.068909022
0.070709125
0.073
0.076041844
0.079754291
0.083971835
0.088528972
0.093260195
0.098
0.1026066
0.107033088
0.111256276
0.115252976
0.119
0.12259873
0.126648822
0.131874504
0.139
0.148378514
0.158879153
0.169
0.177866376
0.187112543
0.199
0.214572149
0.23
0.241349544
0.249139084
0.255
0.260301407
0.265363355
0.270243625
0.275
0.279628771
0.283880263
0.28744331
0.290006744
0.291259401
0.290890113
0.288611752
0.284690076
0.279943727
0.275215385
0.271347731
0.269130329
0.268131032
0.26669599
0.263118231
0.255690784
0.242861715
0.226644879
0.212397476
0.20051535
0.186501506
0.170778094
0.158718878
0.151551512
0.146134001
0.139134362
0.127379248
0.111343932
0.095043873
0.080159165
0.065945262
0.053144408
0.044017763
0.039140635
0.037333122
0.03733901
0.037902085
0.03779931
0.036570751
0.034519579
0.031982142
0.029294788
0.026784998
0.02457636
0.02258856
0.020732421
0.018918765
0.017062091
0.015161469
0.013300536
0.011566608
0.010046999
0.008829025
0.008
0.007609817
0.007558673
0
0
0
0
0
0
0
0
0
0
0
0
0
0
0
0
0
0
0
0
0
0
0
0
0
0
0
0
0
0
0
0
0
0
0
0
0
0
0
0
0
0
0
0
0
0
0
0
0
0
0
0
0
0
0
0
0
0
0
0
0
0
0
0
0
0
0
0
0
0
0
0
0
0
0
0
0
0
0
0
0
0
0
0
0
0
0
0
0
0
0
0
0
0
0
0
0
0
0
0
0
0
0
0
0
0
0
0
0
0
0
0
0
0
0
0
0
0
0
0
0
0
0
0
0
0
0
0
0
0
0
0
0
0
0
0
0
0
0
0
0
0
0
0
0
0
0
0
0
0
0
0
0
0
0
0
0
0
0
0
0
0
0
0
0
0
0
0
0
0
0
0
0
0
0
0
0
0
0
0
0
0
0
0
0
0
0
0
0
0
0
0
0
0
0
0
0
0
0
0
0
0
0
0
0
0
0
0
0
0
0
0
0
0
0
0
0
0
0
0
0
0
0
0
0
0
0
0
0
0
0
0
0
0
0
0
0
0
0
0
0
0
0
0
0
0
0
0
0
0
0
0
0
0
0
0
0
0
0
0
0
0
0
0
0
0
0
0
0
0
0
0
0
0
0
0
0
0
0
0
0
0
0
0
0
0
0
0
0
0
0
0
0
0
0
0
0
0
0
0
0
0
0
0
0
0
0
0
0
0
0
0
0
0
0
0
0
0
0
0
0
0
0
0
0
0
0
0
0
0
0
0
0
0
0
0
0
0
0
0
0
0
0
0
0
0
0
0
0
0
0
0
0
0
0
0
0
0
0
0
0
0
0
0
0
0
0
0
0
0
0
0
0
0
0
0
0
0
0
0
0
0
0
0
0
0
0
0
0
0
0
0
0
0
0
0
0
0
0
0
0
0
0
0
0
0
0
0
0
0
0
0
0
0
0
0
0
0
0
0
0
0
0
0
0
0
0
0
0
0
0
0
0
0
0
0
0
0
0
0
0
0
0
0
0
0
0
0
0
0
0
0
0
0
0
0
0
0
0
0
0
0
0
0
0
0
0
0
0
0
0
0
0
0
0
0
0
0
0
0
0
0
0
0
0
0
0
0
0
0
0
0
0
0
0
0
0
0
0
0
0
0
0
0
0
0
0
0
0
0
0
0
0
0
0
0
0
0
0
0
-0.003411222
-0.002625583
-0.001954161
-0.001330946
-0.000689931
3.49E-05
0.000909534
0.002
0.0033723
0.005092441
0.007226433
0.009840283
0.013
0.016702565
0.020668854
0.024550716
0.028
0.030767482
0.032999647
0.03494191
0.036839684
0.038938381
0.041483415
0.044703773
0.048450638
0.052197387
0.055400972
0.057518345
0.058028978
0.056930293
0.054737662
0.05198898
0.049222139
0.046960597
0.045395813
0.044387245
0.043779918
0.043418856
0.043149083
0.042812251
0.042172466
0.040916284
0.038726891
0.035287473
0.030304953
0.024032215
0.017268101
0.010835194
0.005534941
0.001682716
-0.000892179
-0.002381577
-0.00297731
-0.002871028
-0.00225019
-0.001298063
-0.000197731
0.000867721
0.001715208
0.002169013
0.002222905
0.002040132
0.001791313
0.001647067
0.001778012
0.002339869
0.003145692
0.003665872
0.003355901
0.001671271
-0.001932527
-0.008
-0.016610081
-0.025979403
-0.033859024
-0.038
-0.037912588
-0.040143838
-0.053
-0.078662121
-0.094810442
-0.073
0.002679539
0.098
0.178117881
0.255866881
0.356
0.491529085
0.628501384
0.72122299
0.724
0.614895432
0.467
0.35676349
0.279044293
0.208302949
0.119
-0.002097944
-0.119
-0.193585616
-0.228439848
-0.236324157
-0.23
-0.219658788
-0.205211733
-0.184
-0.155658858
-0.129
-0.112300491
-0.102522463
-0.093799311
-0.080477968
-0.061816681
-0.041985011
-0.025253201
-0.013295874
-0.005192032
9.22E-05
0.003573653
0.005879332
0.007246198
0.007894281
0.00804361
0.00791331
0.007701766
0.007586613
0.007744587
0.008352425
0.009586862
0.011624634
0.014630386
0.018490697
0.02281408
0.027196958
0.031235752
0.034539485
0.037006956
0.038826743
0.040200026
0.041327981
0.042411786
0.043644358
0.045028622
0.046377511
0.047495697
0.048187853
0.04825865
0.04752695
0.046137921
0.044563048
0.043287999
0.042798445
0.04356223
0.045637222
0.048671314
0.052294571
0.05613706
0.059828848
0.063
0.065399795
0.067254358
0.068909022
0.070709125
0.073
0.076041844
0.079754291
0.083971835
0.088528972
0.093260195
0.098
0.1026066
0.107033088
0.111256276
0.115252976
0.119
0.12259873
0.126648822
0.131874504
0.139
0.148378514
0.158879153
0.169
0.177866376
0.187112543
0.199
0.214572149
0.23
0.241349544
0.249139084
0.255
0.260301407
0.265363355
0.270243625
0.275
0.279628771
0.283880263
0.28744331
0.290006744
0.291259401
0.290890113
0.288611752
0.284690076
0.279943727
0.275215385
0.271347731
0.269130329
0.268131032
0.26669599
0.263118231
0.255690784
0.242861715
0.226644879
0.212397476
0.20051535
0.186501506
0.170778094
0.158718878
0.151551512
0.146134001
0.139134362
0.127379248
0.111343932
0.095043873
0.080159165
0.065945262
0.053144408
0.044017763
0.039140635
0.037333122
0.03733901
0.037902085
0.03779931
0.036570751
0.034519579
0.031982142
0.029294788
0.026784998
0.02457636
0.02258856
0.020732421
0.018918765
0.017062091
0.015161469
0.013300536
0.011566608
0.010046999
0.008829025
0.008
0.007609817
0.007558673
0
0
0
0
0
0
0
0
0
0
0
0
0
0
0
0
0
0
0
0
0
0
0
0
0
0
0
0
0
0
0
0
0
0
0
0
0
0
0
0
0
0
0
0
0
0
0
0
0
0
0
0
0
0
0
0
0
0
0
0
0
0
0
0
0
0
0
0
0
0
0
0
0
0
0
0
0
0
0
0
0
0
0
0
0
0
0
0
0
0
0
0
0
0
0
0
0
0
0
0
0
0
0
0
0
0
0
0
0
0
0
0
0
0
0
0
0
0
0
0
0
0
0
0
0
0
0
0
0
0
0
0
0
0
0
0
0
0
0
0
0
0
0
0
0
0
0
0
0
0
0
0
0
0
0
0
0
0
0
0
0
0
0
0
0
0
0
0
0
0
0
0
0
0
0
0
0
0
0
0
0
0
0
0
0
0
0
0
0
0
0
0
0
0
0
0
0
0
0
0
0
0
0
0
0
0
0
0
0
0
0
0
0
0
0
0
0
0
0
0
0
0
0
0
0
0
0
0
0
0
0
0
0
0
0
0
0
0
0
0
0
0
0
0
0
0
0
0
0
0
0
0
0
0
0
0
0
0
0
0
0
0
0
0
0
0
0
0
0
0
0
0
0
0
0
0
0
0
0
0
0
0
0
0
0
0
0
0
0
0
0
0
0
0
0
0
0
0
0
0
0
0
0
0
0
0
0
0
0
0
0
0
0
0
0
0
0
0
0
0
0
0
0
0
0
0
0
0
0
0
0
0
0
0
0
0
0
0
0
0
0
0
0
0
0
0
0
0
0
0
0
0
0
0
0
0
0
0
0
0
0
0
0
0
0
0
0
0
0
0
0
0
0
0
0
0
0
0
0
0
0
0
0
0
0
0
0
0
0
0
0
0
0
0
0
0
0
0
0
0
0
0
0
0
0
0
0
0
0
0
0
0
0
0
0
0
0
0
0
0
0
0
0
0
0
0
0
0
0
0
0
0
0
0
0
0
0
0
0
0
0
0
0
0
0
0
0
0
0
0
0
0
0
0
0
0
0
0
0
0
0
0
0
0
0
0
0
0
0
0
0
0
0
0
0
0
0
0
0
0
0
0
0
0
0
0
0
0
0
0
0
0
0
0
0
0
0
0
0
0
0
0
0
0
0
0
0
0
0
0
0
0
0
0
0
-0.003411222
-0.002625583
-0.001954161
-0.001330946
-0.000689931
3.49E-05
0.000909534
0.002
0.0033723
0.005092441
0.007226433
0.009840283
0.013
0.016702565
0.020668854
0.024550716
0.028
0.030767482
0.032999647
0.03494191
0.036839684
0.038938381
0.041483415
0.044703773
0.048450638
0.052197387
0.055400972
0.057518345
0.058028978
0.056930293
0.054737662
0.05198898
0.049222139
0.046960597
0.045395813
0.044387245
0.043779918
0.043418856
0.043149083
0.042812251
0.042172466
0.040916284
0.038726891
0.035287473
0.030304953
0.024032215
0.017268101
0.010835194
0.005534941
0.001682716
-0.000892179
-0.002381577
-0.00297731
-0.002871028
-0.00225019
-0.001298063
-0.000197731
0.000867721
0.001715208
0.002169013
0.002222905
0.002040132
0.001791313
0.001647067
0.001778012
0.002339869
0.003145692
0.003665872
0.003355901
0.001671271
-0.001932527
-0.008
-0.016610081
-0.025979403
-0.033859024
-0.038
-0.037912588
-0.040143838
-0.053
-0.078662121
-0.094810442
-0.073
0.002679539
0.098
0.178117881
0.255866881
0.356
0.491529085
0.628501384
0.72122299
0.724
0.614895432
0.467
0.35676349
0.279044293
0.208302949
0.119
-0.002097944
-0.119
-0.193585616
-0.228439848
-0.236324157
-0.23
-0.219658788
-0.205211733
-0.184
-0.155658858
-0.129
-0.112300491
-0.102522463
-0.093799311
-0.080477968
-0.061816681
-0.041985011
-0.025253201
-0.013295874
-0.005192032
9.22E-05
0.003573653
0.005879332
0.007246198
0.007894281
0.00804361
0.00791331
0.007701766
0.007586613
0.007744587
0.008352425
0.009586862
0.011624634
0.014630386
0.018490697
0.02281408
0.027196958
0.031235752
0.034539485
0.037006956
0.038826743
0.040200026
0.041327981
0.042411786
0.043644358
0.045028622
0.046377511
0.047495697
0.048187853
0.04825865
0.04752695
0.046137921
0.044563048
0.043287999
0.042798445
0.04356223
0.045637222
0.048671314
0.052294571
0.05613706
0.059828848
0.063
0.065399795
0.067254358
0.068909022
0.070709125
0.073
0.076041844
0.079754291
0.083971835
0.088528972
0.093260195
0.098
0.1026066
0.107033088
0.111256276
0.115252976
0.119
0.12259873
0.126648822
0.131874504
0.139
0.148378514
0.158879153
0.169
0.177866376
0.187112543
0.199
0.214572149
0.23
0.241349544
0.249139084
0.255
0.260301407
0.265363355
0.270243625
0.275
0.279628771
0.283880263
0.28744331
0.290006744
0.291259401
0.290890113
0.288611752
0.284690076
0.279943727
0.275215385
0.271347731
0.269130329
0.268131032
0.26669599
0.263118231
0.255690784
0.242861715
0.226644879
0.212397476
0.20051535
0.186501506
0.170778094
0.158718878
0.151551512
0.146134001
0.139134362
0.127379248
0.111343932
0.095043873
0.080159165
0.065945262
0.053144408
0.044017763
0.039140635
0.037333122
0.03733901
0.037902085
0.03779931
0.036570751
0.034519579
0.031982142
0.029294788
0.026784998
0.02457636
0.02258856
0.020732421
0.018918765
0.017062091
0.015161469
0.013300536
0.011566608
0.010046999
0.008829025
0.008
0.007609817
0.007558673
0
0
0
0
0
0
0
0
0
0
0
0
0
0
0
0
0
0
0
0
0
0
0
0
0
0
0
0
0
0
0
0
0
0
0
0
0
0
0
0
0
0
0
0
0
0
0
0
0
0
0
0
0
0
0
0
0
0
0
0
0
0
0
0
0
0
0
0
0
0
0
0
0
0
0
0
0
0
0
0
0
0
0
0
0
0
0
0
0
0
0
0
0
0
0
0
0
0
0
0
0
0
0
0
0
0
0
0
0
0
0
0
0
0
0
0
0
0
0
0
0
0
0
0
0
0
0
0
0
0
0
0
0
0
0
0
0
0
0
0
0
0
0
0
0
0
0
0
0
0
0
0
0
0
0
0
0
0
0
0
0
0
0
0
0
0
0
0
0
0
0
0
0
0
0
0
0
0
0
0
0
0
0
0
0
0
0
0
0
0
0
0
0
0
0
0
0
0
0
0
0
0
0
0
0
0
0
0
0
0
0
0
0
0
0
0
0
0
0
0
0
0
0
0
0
0
0
0
0
0
0
0
0
0
0
0
0
0
0
0
0
0
0
0
0
0
0
0
0
0
0
0
0
0
0
0
0
0
0
0
0
0
0
0
0
0
0
0
0
0
0
0
0
0
0
0
0
0
0
0
0
0
0
0
0
0
0
0
0
0
0
0
0
0
0
0
0
0
0
0
0
0
0
0
0
0
0
0
0
0
0
0
0
0
0
0
0
0
0
0
0
0
0
0
0
0
0
0
0
0
0
0
0
0
0
0
0
0
0
0
0
0
0
0
0
0
0
0
0
0
0
0
0
0
0
0
0
0
0
0
0
0
0
0
0
0
0
0
0
0
0
0
0
0
0
0
0
0
0
0
0
0
0
0
0
0
0
0
0
0
0
0
0
0
0
0
0
0
0
0
0
0
0
0
0
0
0
0
0
0
0
0
0
0
0
0
0
0
0
0
0
0
0
0
0
0
0
0
0
0
0
0
0
0
0
0
0
0
0
0
0
0
0
0
0
0
0
0
0
0
0
0
0
0
0
0
0
0
0
0
0
0
0
0
0
0
0
0
0
0
0
0
0
0
0
0
0
0
0
0
0
0
0
0
0
0
0
0
0
0
0
0
0
0
0
0
0
0
0
0
0
0
0
0
0
0
0
0
0
0
-0.003411222
-0.002625583
-0.001954161
-0.001330946
-0.000689931
3.49E-05
0.000909534
0.002
0.0033723
0.005092441
0.007226433
0.009840283
0.013
0.016702565
0.020668854
0.024550716
0.028
0.030767482
0.032999647
0.03494191
0.036839684
0.038938381
0.041483415
0.044703773
0.048450638
0.052197387
0.055400972
0.057518345
0.058028978
0.056930293
0.054737662
0.05198898
0.049222139
0.046960597
0.045395813
0.044387245
0.043779918
0.043418856
0.043149083
0.042812251
0.042172466
0.040916284
0.038726891
0.035287473
0.030304953
0.024032215
0.017268101
0.010835194
0.005534941
0.001682716
-0.000892179
-0.002381577
-0.00297731
-0.002871028
-0.00225019
-0.001298063
-0.000197731
0.000867721
0.001715208
0.002169013
0.002222905
0.002040132
0.001791313
0.001647067
0.001778012
0.002339869
0.003145692
0.003665872
0.003355901
0.001671271
-0.001932527
-0.008
-0.016610081
-0.025979403
-0.033859024
-0.038
-0.037912588
-0.040143838
-0.053
-0.078662121
-0.094810442
-0.073
0.002679539
0.098
0.178117881
0.255866881
0.356
0.491529085
0.628501384
0.72122299
0.724
0.614895432
0.467
0.35676349
0.279044293
0.208302949
0.119
-0.002097944
-0.119
-0.193585616
-0.228439848
-0.236324157
-0.23
-0.219658788
-0.205211733
-0.184
-0.155658858
-0.129
-0.112300491
-0.102522463
-0.093799311
-0.080477968
-0.061816681
-0.041985011
-0.025253201
-0.013295874
-0.005192032
9.22E-05
0.003573653
0.005879332
0.007246198
0.007894281
0.00804361
0.00791331
0.007701766
0.007586613
0.007744587
0.008352425
0.009586862
0.011624634
0.014630386
0.018490697
0.02281408
0.027196958
0.031235752
0.034539485
0.037006956
0.038826743
0.040200026
0.041327981
0.042411786
0.043644358
0.045028622
0.046377511
0.047495697
0.048187853
0.04825865
0.04752695
0.046137921
0.044563048
0.043287999
0.042798445
0.04356223
0.045637222
0.048671314
0.052294571
0.05613706
0.059828848
0.063
0.065399795
0.067254358
0.068909022
0.070709125
0.073
0.076041844
0.079754291
0.083971835
0.088528972
0.093260195
0.098
0.1026066
0.107033088
0.111256276
0.115252976
0.119
0.12259873
0.126648822
0.131874504
0.139
0.148378514
0.158879153
0.169
0.177866376
0.187112543
0.199
0.214572149
0.23
0.241349544
0.249139084
0.255
0.260301407
0.265363355
0.270243625
0.275
0.279628771
0.283880263
0.28744331
0.290006744
0.291259401
0.290890113
0.288611752
0.284690076
0.279943727
0.275215385
0.271347731
0.269130329
0.268131032
0.26669599
0.263118231
0.255690784
0.242861715
0.226644879
0.212397476
0.20051535
0.186501506
0.170778094
0.158718878
0.151551512
0.146134001
0.139134362
0.127379248
0.111343932
0.095043873
0.080159165
0.065945262
0.053144408
0.044017763
0.039140635
0.037333122
0.03733901
0.037902085
0.03779931
0.036570751
0.034519579
0.031982142
0.029294788
0.026784998
0.02457636
0.02258856
0.020732421
0.018918765
0.017062091
0.015161469
0.013300536
0.011566608
0.010046999
0.008829025
0.008
0.007609817
0.007558673
0
0
0
0
0
0
0
0
0
0
0
0
0
0
0
0
0
0
0
0
0
0
0
0
0
0
0
0
0
0
0
0
0
0
0
0
0
0
0
0
0
0
0
0
0
0
0
0
0
0
0
0
0
0
0
0
0
0
0
0
0
0
0
0
0
0
0
0
0
0
0
0
0
0
0
0
0
0
0
0
0
0
0
0
0
0
0
0
0
0
0
0
0
0
0
0
0
0
0
0
0
0
0
0
0
0
0
0
0
0
0
0
0
0
0
0
0
0
0
0
0
0
0
0
0
0
0
0
0
0
0
0
0
0
0
0
0
0
0
0
0
0
0
0
0
0
0
0
0
0
0
0
0
0
0
0
0
0
0
0
0
0
0
0
0
0
0
0
0
0
0
0
0
0
0
0
0
0
0
0
0
0
0
0
0
0
0
0
0
0
0
0
0
0
0
0
0
0
0
0
0
0
0
0
0
0
0
0
0
0
0
0
0
0
0
0
0
0
0
0
0
0
0
0
0
0
0
0
0
0
0
0
0
0
0
0
0
0
0
0
0
0
0
0
0
0
0
0
0
0
0
0
0
0
0
0
0
0
0
0
0
0
0
0
0
0
0
0
0
0
0
0
0
0
0
0
0
0
0
0
0
0
0
0
0
0
0
0
0
0
0
0
0
0
0
0
0
0
0
0
0
0
0
0
0
0
0
0
0
0
0
0
0
0
0
0
0
0
0
0
0
0
0
0
0
0
0
0
0
0
0
0
0
0
0
0
0
0
0
0
0
0
0
0
0
0
0
0
0
0
0
0
0
0
0
0
0
0
0
0
0
0
0
0
0
0
0
0
0
0
0
0
0
0
0
0
0
0
0
0
0
0
0
0
0
0
0
0
0
0
0
0
0
0
0
0
0
0
0
0
0
0
0
0
0
0
0
0
0
0
0
0
0
0
0
0
0
0
0
0
0
0
0
0
0
0
0
0
0
0
0
0
0
0
0
0
0
0
0
0
0
0
0
0
0
0
0
0
0
0
0
0
0
0
0
0
0
0
0
0
0
0
0
0
0
0
0
0
0
0
0
0
0
0
0
0
0
0
0
0
0
0
0
0
0
0
0
0
0
0
0
0
0
0
0
0
0
0
0
0
0
0
0
0
0
-0.003411222
-0.002625583
-0.001954161
-0.001330946
-0.000689931
3.49E-05
0.000909534
0.002
0.0033723
0.005092441
0.007226433
0.009840283
0.013
0.016702565
0.020668854
0.024550716
0.028
0.030767482
0.032999647
0.03494191
0.036839684
0.038938381
0.041483415
0.044703773
0.048450638
0.052197387
0.055400972
0.057518345
0.058028978
0.056930293
0.054737662
0.05198898
0.049222139
0.046960597
0.045395813
0.044387245
0.043779918
0.043418856
0.043149083
0.042812251
0.042172466
0.040916284
0.038726891
0.035287473
0.030304953
0.024032215
0.017268101
0.010835194
0.005534941
0.001682716
-0.000892179
-0.002381577
-0.00297731
-0.002871028
-0.00225019
-0.001298063
-0.000197731
0.000867721
0.001715208
0.002169013
0.002222905
0.002040132
0.001791313
0.001647067
0.001778012
0.002339869
0.003145692
0.003665872
0.003355901
0.001671271
-0.001932527
-0.008
-0.016610081
-0.025979403
-0.033859024
-0.038
-0.037912588
-0.040143838
-0.053
-0.078662121
-0.094810442
-0.073
0.002679539
0.098
0.178117881
0.255866881
0.356
0.491529085
0.628501384
0.72122299
0.724
0.614895432
0.467
0.35676349
0.279044293
0.208302949
0.119
-0.002097944
-0.119
-0.193585616
-0.228439848
-0.236324157
-0.23
-0.219658788
-0.205211733
-0.184
-0.155658858
-0.129
-0.112300491
-0.102522463
-0.093799311
-0.080477968
-0.061816681
-0.041985011
-0.025253201
-0.013295874
-0.005192032
9.22E-05
0.003573653
0.005879332
0.007246198
0.007894281
0.00804361
0.00791331
0.007701766
0.007586613
0.007744587
0.008352425
0.009586862
0.011624634
0.014630386
0.018490697
0.02281408
0.027196958
0.031235752
0.034539485
0.037006956
0.038826743
0.040200026
0.041327981
0.042411786
0.043644358
0.045028622
0.046377511
0.047495697
0.048187853
0.04825865
0.04752695
0.046137921
0.044563048
0.043287999
0.042798445
0.04356223
0.045637222
0.048671314
0.052294571
0.05613706
0.059828848
0.063
0.065399795
0.067254358
0.068909022
0.070709125
0.073
0.076041844
0.079754291
0.083971835
0.088528972
0.093260195
0.098
0.1026066
0.107033088
0.111256276
0.115252976
0.119
0.12259873
0.126648822
0.131874504
0.139
0.148378514
0.158879153
0.169
0.177866376
0.187112543
0.199
0.214572149
0.23
0.241349544
0.249139084
0.255
0.260301407
0.265363355
0.270243625
0.275
0.279628771
0.283880263
0.28744331
0.290006744
0.291259401
0.290890113
0.288611752
0.284690076
0.279943727
0.275215385
0.271347731
0.269130329
0.268131032
0.26669599
0.263118231
0.255690784
0.242861715
0.226644879
0.212397476
0.20051535
0.186501506
0.170778094
0.158718878
0.151551512
0.146134001
0.139134362
0.127379248
0.111343932
0.095043873
0.080159165
0.065945262
0.053144408
0.044017763
0.039140635
0.037333122
0.03733901
0.037902085
0.03779931
0.036570751
0.034519579
0.031982142
0.029294788
0.026784998
0.02457636
0.02258856
0.020732421
0.018918765
0.017062091
0.015161469
0.013300536
0.011566608
0.010046999
0.008829025
0.008
0.007609817
0.007558673
0
0
0
0
0
0
0
0
0
0
0
0
0
0
0
0
0
0
0
0
0
0
0
0
0
0
0
0
0
0
0
0
0
0
0
0
0
0
0
0
0
0
0
0
0
0
0
0
0
0
0
0
0
0
0
0
0
0
0
0
0
0
0
0
0
0
0
0
0
0
0
0
0
0
0
0
0
0
0
0
0
0
0
0
0
0
0
0
0
0
0
0
0
0
0
0
0
0
0
0
0
0
0
0
0
0
0
0
0
0
0
0
0
0
0
0
0
0
0
0
0
0
0
0
0
0
0
0
0
0
0
0
0
0
0
0
0
0
0
0
0
0
0
0
0
0
0
0
0
0
0
0
0
0
0
0
0
0
0
0
0
0
0
0
0
0
0
0
0
0
0
0
0
0
0
0
0
0
0
0
0
0
0
0
0
0
0
0
0
0
0
0
0
0
0
0
0
0
0
0
0
0
0
0
0
0
0
0
0
0
0
0
0
0
0
0
0
0
0
0
0
0
0
0
0
0
0
0
0
0
0
0
0
0
0
0
0
0
0
0
0
0
0
0
0
0
0
0
0
0
0
0
0
0
0
0
0
0
0
0
0
0
0
0
0
0
0
0
0
0
0
0
0
0
0
0
0
0
0
0
0
0
0
0
0
0
0
0
0
0
0
0
0
0
0
0
0
0
0
0
0
0
0
0
0
0
0
0
0
0
0
0
0
0
0
0
0
0
0
0
0
0
0
0
0
0
0
0
0
0
0
0
0
0
0
0
0
0
0
0
0
0
0
0
0
0
0
0
0
0
0
0
0
0
0
0
0
0
0
0
0
0
0
0
0
0
0
0
0
0
0
0
0
0
0
0
0
0
0
0
0
0
0
0
0
0
0
0
0
0
0
0
0
0
0
0
0
0
0
0
0
0
0
0
0
0
0
0
0
0
0
0
0
0
0
0
0
0
0
0
0
0
0
0
0
0
0
0
0
0
0
0
0
0
0
0
0
0
0
0
0
0
0
0
0
0
0
0
0
0
0
0
0
0
0
0
0
0
0
0
0
0
0
0
0
0
0
0
0
0
0
0
0
0
0
0
0
0
0
0
0
0
0
0
0
0
0
0
0
0
0
0
0
0
0
0
0
0
0
0
0
-0.003411222
-0.002625583
-0.001954161
-0.001330946
-0.000689931
3.49E-05
0.000909534
0.002
0.0033723
0.005092441
0.007226433
0.009840283
0.013
0.016702565
0.020668854
0.024550716
0.028
0.030767482
0.032999647
0.03494191
0.036839684
0.038938381
0.041483415
0.044703773
0.048450638
0.052197387
0.055400972
0.057518345
0.058028978
0.056930293
0.054737662
0.05198898
0.049222139
0.046960597
0.045395813
0.044387245
0.043779918
0.043418856
0.043149083
0.042812251
0.042172466
0.040916284
0.038726891
0.035287473
0.030304953
0.024032215
0.017268101
0.010835194
0.005534941
0.001682716
-0.000892179
-0.002381577
-0.00297731
-0.002871028
-0.00225019
-0.001298063
-0.000197731
0.000867721
0.001715208
0.002169013
0.002222905
0.002040132
0.001791313
0.001647067
0.001778012
0.002339869
0.003145692
0.003665872
0.003355901
0.001671271
-0.001932527
-0.008
-0.016610081
-0.025979403
-0.033859024
-0.038
-0.037912588
-0.040143838
-0.053
-0.078662121
-0.094810442
-0.073
0.002679539
0.098
0.178117881
0.255866881
0.356
0.491529085
0.628501384
0.72122299
0.724
0.614895432
0.467
0.35676349
0.279044293
0.208302949
0.119
-0.002097944
-0.119
-0.193585616
-0.228439848
-0.236324157
-0.23
-0.219658788
-0.205211733
-0.184
-0.155658858
-0.129
-0.112300491
-0.102522463
-0.093799311
-0.080477968
-0.061816681
-0.041985011
-0.025253201
-0.013295874
-0.005192032
9.22E-05
0.003573653
0.005879332
0.007246198
0.007894281
0.00804361
0.00791331
0.007701766
0.007586613
0.007744587
0.008352425
0.009586862
0.011624634
0.014630386
0.018490697
0.02281408
0.027196958
0.031235752
0.034539485
0.037006956
0.038826743
0.040200026
0.041327981
0.042411786
0.043644358
0.045028622
0.046377511
0.047495697
0.048187853
0.04825865
0.04752695
0.046137921
0.044563048
0.043287999
0.042798445
0.04356223
0.045637222
0.048671314
0.052294571
0.05613706
0.059828848
0.063
0.065399795
0.067254358
0.068909022
0.070709125
0.073
0.076041844
0.079754291
0.083971835
0.088528972
0.093260195
0.098
0.1026066
0.107033088
0.111256276
0.115252976
0.119
0.12259873
0.126648822
0.131874504
0.139
0.148378514
0.158879153
0.169
0.177866376
0.187112543
0.199
0.214572149
0.23
0.241349544
0.249139084
0.255
0.260301407
0.265363355
0.270243625
0.275
0.279628771
0.283880263
0.28744331
0.290006744
0.291259401
0.290890113
0.288611752
0.284690076
0.279943727
0.275215385
0.271347731
0.269130329
0.268131032
0.26669599
0.263118231
0.255690784
0.242861715
0.226644879
0.212397476
0.20051535
0.186501506
0.170778094
0.158718878
0.151551512
0.146134001
0.139134362
0.127379248
0.111343932
0.095043873
0.080159165
0.065945262
0.053144408
0.044017763
0.039140635
0.037333122
0.03733901
0.037902085
0.03779931
0.036570751
0.034519579
0.031982142
0.029294788
0.026784998
0.02457636
0.02258856
0.020732421
0.018918765
0.017062091
0.015161469
0.013300536
0.011566608
0.010046999
0.008829025
0.008
0.007609817
0.007558673
0
0
0
0
0
0
0
0
0
0
0
0
0
0
0
0
0
0
0
0
0
0
0
0
0
0
0
0
0
0
0
0
0
0
0
0
0
0
0
0
0
0
0
0
0
0
0
0
0
0
0
0
0
0
0
0
0
0
0
0
0
0
0
0
0
0
0
0
0
0
0
0
0
0
0
0
0
0
0
0
0
0
0
0
0
0
0
0
0
0
0
0
0
0
0
0
0
0
0
0
0
0
0
0
0
0
0
0
0
0
0
0
0
0
0
0
0
0
0
0
0
0
0
0
0
0
0
0
0
0
0
0
0
0
0
0
0
0
0
0
0
0
0
0
0
0
0
0
0
0
0
0
0
0
0
0
0
0
0
0
0
0
0
0
0
0
0
0
0
0
0
0
0
0
0
0
0
0
0
0
0
0
0
0
0
0
0
0
0
0
0
0
0
0
0
0
0
0
0
0
0
0
0
0
0
0
0
0
0
0
0
0
0
0
0
0
0
0
0
0
0
0
0
0
0
0
0
0
0
0
0
0
0
0
0
0
0
0
0
0
0
0
0
0
0
0
0
0
0
0
0
0
0
0
0
0
0
0
0
0
0
0
0
0
0
0
0
0
0
0
0
0
0
0
0
0
0
0
0
0
0
0
0
0
0
0
0
0
0
0
0
0
0
0
0
0
0
0
0
0
0
0
0
0
0
0
0
0
0
0
0
0
0
0
0
0
0
0
0
0
0
0
0
0
0
0
0
0
0
0
0
0
0
0
0
0
0
0
0
0
0
0
0
0
0
0
0
0
0
0
0
0
0
0
0
0
0
0
0
0
0
0
0
0
0
0
0
0
0
0
0
0
0
0
0
0
0
0
0
0
0
0
0
0
0
0
0
0
0
0
0
0
0
0
0
0
0
0
0
0
0
0
0
0
0
0
0
0
0
0
0
0
0
0
0
0
0
0
0
0
0
0
0
0
0
0
0
0
0
0
0
0
0
0
0
0
0
0
0
0
0
0
0
0
0
0
0
0
0
0
0
0
0
0
0
0
0
0
0
0
0
0
0
0
0
0
0
0
0
0
0
0
0
0
0
0
0
0
0
0
0
0
0
0
0
0
0
0
0
0
0
0
0
0
0
0
0
-0.003411222
-0.002625583
-0.001954161
-0.001330946
-0.000689931
3.49E-05
0.000909534
0.002
0.0033723
0.005092441
0.007226433
0.009840283
0.013
0.016702565
0.020668854
0.024550716
0.028
0.030767482
0.032999647
0.03494191
0.036839684
0.038938381
0.041483415
0.044703773
0.048450638
0.052197387
0.055400972
0.057518345
0.058028978
0.056930293
0.054737662
0.05198898
0.049222139
0.046960597
0.045395813
0.044387245
0.043779918
0.043418856
0.043149083
0.042812251
0.042172466
0.040916284
0.038726891
0.035287473
0.030304953
0.024032215
0.017268101
0.010835194
0.005534941
0.001682716
-0.000892179
-0.002381577
-0.00297731
-0.002871028
-0.00225019
-0.001298063
-0.000197731
0.000867721
0.001715208
0.002169013
0.002222905
0.002040132
0.001791313
0.001647067
0.001778012
0.002339869
0.003145692
0.003665872
0.003355901
0.001671271
-0.001932527
-0.008
-0.016610081
-0.025979403
-0.033859024
-0.038
-0.037912588
-0.040143838
-0.053
-0.078662121
-0.094810442
-0.073
0.002679539
0.098
0.178117881
0.255866881
0.356
0.491529085
0.628501384
0.72122299
0.724
0.614895432
0.467
0.35676349
0.279044293
0.208302949
0.119
-0.002097944
-0.119
-0.193585616
-0.228439848
-0.236324157
-0.23
-0.219658788
-0.205211733
-0.184
-0.155658858
-0.129
-0.112300491
-0.102522463
-0.093799311
-0.080477968
-0.061816681
-0.041985011
-0.025253201
-0.013295874
-0.005192032
9.22E-05
0.003573653
0.005879332
0.007246198
0.007894281
0.00804361
0.00791331
0.007701766
0.007586613
0.007744587
0.008352425
0.009586862
0.011624634
0.014630386
0.018490697
0.02281408
0.027196958
0.031235752
0.034539485
0.037006956
0.038826743
0.040200026
0.041327981
0.042411786
0.043644358
0.045028622
0.046377511
0.047495697
0.048187853
0.04825865
0.04752695
0.046137921
0.044563048
0.043287999
0.042798445
0.04356223
0.045637222
0.048671314
0.052294571
0.05613706
0.059828848
0.063
0.065399795
0.067254358
0.068909022
0.070709125
0.073
0.076041844
0.079754291
0.083971835
0.088528972
0.093260195
0.098
0.1026066
0.107033088
0.111256276
0.115252976
0.119
0.12259873
0.126648822
0.131874504
0.139
0.148378514
0.158879153
0.169
0.177866376
0.187112543
0.199
0.214572149
0.23
0.241349544
0.249139084
0.255
0.260301407
0.265363355
0.270243625
0.275
0.279628771
0.283880263
0.28744331
0.290006744
0.291259401
0.290890113
0.288611752
0.284690076
0.279943727
0.275215385
0.271347731
0.269130329
0.268131032
0.26669599
0.263118231
0.255690784
0.242861715
0.226644879
0.212397476
0.20051535
0.186501506
0.170778094
0.158718878
0.151551512
0.146134001
0.139134362
0.127379248
0.111343932
0.095043873
0.080159165
0.065945262
0.053144408
0.044017763
0.039140635
0.037333122
0.03733901
0.037902085
0.03779931
0.036570751
0.034519579
0.031982142
0.029294788
0.026784998
0.02457636
0.02258856
0.020732421
0.018918765
0.017062091
0.015161469
0.013300536
0.011566608
0.010046999
0.008829025
0.008
0.007609817
0.007558673
0
0
0
0
0
0
0
0
0
0
0
0
0
0
0
0
0
0
0
0
0
0
0
0
0
0
0
0
0
0
0
0
0
0
0
0
0
0
0
0
0
0
0
0
0
0
0
0
0
0
0
0
0
0
0
0
0
0
0
0
0
0
0
0
0
0
0
0
0
0
0
0
0
0
0
0
0
0
0
0
0
0
0
0
0
0
0
0
0
0
0
0
0
0
0
0
0
0
0
0
0
0
0
0
0
0
0
0
0
0
0
0
0
0
0
0
0
0
0
0
0
0
0
0
0
0
0
0
0
0
0
0
0
0
0
0
0
0
0
0
0
0
0
0
0
0
0
0
0
0
0
0
0
0
0
0
0
0
0
0
0
0
0
0
0
0
0
0
0
0
0
0
0
0
0
0
0
0
0
0
0
0
0
0
0
0
0
0
0
0
0
0
0
0
0
0
0
0
0
0
0
0
0
0
0
0
0
0
0
0
0
0
0
0
0
0
0
0
0
0
0
0
0
0
0
0
0
0
0
0
0
0
0
0
0
0
0
0
0
0
0
0
0
0
0
0
0
0
0
0
0
0
0
0
0
0
0
0
0
0
0
0
0
0
0
0
0
0
0
0
0
0
0
0
0
0
0
0
0
0
0
0
0
0
0
0
0
0
0
0
0
0
0
0
0
0
0
0
0
0
0
0
0
0
0
0
0
0
0
0
0
0
0
0
0
0
0
0
0
0
0
0
0
0
0
0
0
0
0
0
0
0
0
0
0
0
0
0
0
0
0
0
0
0
0
0
0
0
0
0
0
0
0
0
0
0
0
0
0
0
0
0
0
0
0
0
0
0
0
0
0
0
0
0
0
0
0
0
0
0
0
0
0
0
0
0
0
0
0
0
0
0
0
0
0
0
0
0
0
0
0
0
0
0
0
0
0
0
0
0
0
0
0
0
0
0
0
0
0
0
0
0
0
0
0
0
0
0
0
0
0
0
0
0
0
0
0
0
0
0
0
0
0
0
0
0
0
0
0
0
0
0
0
0
0
0
0
0
0
0
0
0
0
0
0
0
0
0
0
0
0
0
0
0
0
0
0
0
0
0
0
0
0
0
0
0
0
0
0
0
0
0
0
0
-0.003411222
-0.002625583
-0.001954161
-0.001330946
-0.000689931
3.49E-05
0.000909534
0.002
0.0033723
0.005092441
0.007226433
0.009840283
0.013
0.016702565
0.020668854
0.024550716
0.028
0.030767482
0.032999647
0.03494191
0.036839684
0.038938381
0.041483415
0.044703773
0.048450638
0.052197387
0.055400972
0.057518345
0.058028978
0.056930293
0.054737662
0.05198898
0.049222139
0.046960597
0.045395813
0.044387245
0.043779918
0.043418856
0.043149083
0.042812251
0.042172466
0.040916284
0.038726891
0.035287473
0.030304953
0.024032215
0.017268101
0.010835194
0.005534941
0.001682716
-0.000892179
-0.002381577
-0.00297731
-0.002871028
-0.00225019
-0.001298063
-0.000197731
0.000867721
0.001715208
0.002169013
0.002222905
0.002040132
0.001791313
0.001647067
0.001778012
0.002339869
0.003145692
0.003665872
0.003355901
0.001671271
-0.001932527
-0.008
-0.016610081
-0.025979403
-0.033859024
-0.038
-0.037912588
-0.040143838
-0.053
-0.078662121
-0.094810442
-0.073
0.002679539
0.098
0.178117881
0.255866881
0.356
0.491529085
0.628501384
0.72122299
0.724
0.614895432
0.467
0.35676349
0.279044293
0.208302949
0.119
-0.002097944
-0.119
-0.193585616
-0.228439848
-0.236324157
-0.23
-0.219658788
-0.205211733
-0.184
-0.155658858
-0.129
-0.112300491
-0.102522463
-0.093799311
-0.080477968
-0.061816681
-0.041985011
-0.025253201
-0.013295874
-0.005192032
9.22E-05
0.003573653
0.005879332
0.007246198
0.007894281
0.00804361
0.00791331
0.007701766
0.007586613
0.007744587
0.008352425
0.009586862
0.011624634
0.014630386
0.018490697
0.02281408
0.027196958
0.031235752
0.034539485
0.037006956
0.038826743
0.040200026
0.041327981
0.042411786
0.043644358
0.045028622
0.046377511
0.047495697
0.048187853
0.04825865
0.04752695
0.046137921
0.044563048
0.043287999
0.042798445
0.04356223
0.045637222
0.048671314
0.052294571
0.05613706
0.059828848
0.063
0.065399795
0.067254358
0.068909022
0.070709125
0.073
0.076041844
0.079754291
0.083971835
0.088528972
0.093260195
0.098
0.1026066
0.107033088
0.111256276
0.115252976
0.119
0.12259873
0.126648822
0.131874504
0.139
0.148378514
0.158879153
0.169
0.177866376
0.187112543
0.199
0.214572149
0.23
0.241349544
0.249139084
0.255
0.260301407
0.265363355
0.270243625
0.275
0.279628771
0.283880263
0.28744331
0.290006744
0.291259401
0.290890113
0.288611752
0.284690076
0.279943727
0.275215385
0.271347731
0.269130329
0.268131032
0.26669599
0.263118231
0.255690784
0.242861715
0.226644879
0.212397476
0.20051535
0.186501506
0.170778094
0.158718878
0.151551512
0.146134001
0.139134362
0.127379248
0.111343932
0.095043873
0.080159165
0.065945262
0.053144408
0.044017763
0.039140635
0.037333122
0.03733901
0.037902085
0.03779931
0.036570751
0.034519579
0.031982142
0.029294788
0.026784998
0.02457636
0.02258856
0.020732421
0.018918765
0.017062091
0.015161469
0.013300536
0.011566608
0.010046999
0.008829025
0.008
0.007609817
0.007558673
0
0
0
0
0
0
0
0
0
0
0
0
0
0
0
0
0
0
0
0
0
0
0
0
0
0
0
0
0
0
0
0
0
0
0
0
0
0
0
0
0
0
0
0
0
0
0
0
0
0
0
0
0
0
0
0
0
0
0
0
0
0
0
0
0
0
0
0
0
0
0
0
0
0
0
0
0
0
0
0
0
0
0
0
0
0
0
0
0
0
0
0
0
0
0
0
0
0
0
0
0
0
0
0
0
0
0
0
0
0
0
0
0
0
0
0
0
0
0
0
0
0
0
0
0
0
0
0
0
0
0
0
0
0
0
0
0
0
0
0
0
0
0
0
0
0
0
0
0
0
0
0
0
0
0
0
0
0
0
0
0
0
0
0
0
0
0
0
0
0
0
0
0
0
0
0
0
0
0
0
0
0
0
0
0
0
0
0
0
0
0
0
0
0
0
0
0
0
0
0
0
0
0
0
0
0
0
0
0
0
0
0
0
0
0
0
0
0
0
0
0
0
0
0
0
0
0
0
0
0
0
0
0
0
0
0
0
0
0
0
0
0
0
0
0
0
0
0
0
0
0
0
0
0
0
0
0
0
0
0
0
0
0
0
0
0
0
0
0
0
0
0
0
0
0
0
0
0
0
0
0
0
0
0
0
0
0
0
0
0
0
0
0
0
0
0
0
0
0
0
0
0
0
0
0
0
0
0
0
0
0
0
0
0
0
0
0
0
0
0
0
0
0
0
0
0
0
0
0
0
0
0
0
0
0
0
0
0
0
0
0
0
0
0
0
0
0
0
0
0
0
0
0
0
0
0
0
0
0
0
0
0
0
0
0
0
0
0
0
0
0
0
0
0
0
0
0
0
0
0
0
0
0
0
0
0
0
0
0
0
0
0
0
0
0
0
0
0
0
0
0
0
0
0
0
0
0
0
0
0
0
0
0
0
0
0
0
0
0
0
0
0
0
0
0
0
0
0
0
0
0
0
0
0
0
0
0
0
0
0
0
0
0
0
0
0
0
0
0
0
0
0
0
0
0
0
0
0
0
0
0
0
0
0
0
0
0
0
0
0
0
0
0
0
0
0
0
0
0
0
0
0
0
0
0
0
0
0
0
0
0
-0.003411222
-0.002625583
-0.001954161
-0.001330946
-0.000689931
3.49E-05
0.000909534
0.002
0.0033723
0.005092441
0.007226433
0.009840283
0.013
0.016702565
0.020668854
0.024550716
0.028
0.030767482
0.032999647
0.03494191
0.036839684
0.038938381
0.041483415
0.044703773
0.048450638
0.052197387
0.055400972
0.057518345
0.058028978
0.056930293
0.054737662
0.05198898
0.049222139
0.046960597
0.045395813
0.044387245
0.043779918
0.043418856
0.043149083
0.042812251
0.042172466
0.040916284
0.038726891
0.035287473
0.030304953
0.024032215
0.017268101
0.010835194
0.005534941
0.001682716
-0.000892179
-0.002381577
-0.00297731
-0.002871028
-0.00225019
-0.001298063
-0.000197731
0.000867721
0.001715208
0.002169013
0.002222905
0.002040132
0.001791313
0.001647067
0.001778012
0.002339869
0.003145692
0.003665872
0.003355901
0.001671271
-0.001932527
-0.008
-0.016610081
-0.025979403
-0.033859024
-0.038
-0.037912588
-0.040143838
-0.053
-0.078662121
-0.094810442
-0.073
0.002679539
0.098
0.178117881
0.255866881
0.356
0.491529085
0.628501384
0.72122299
0.724
0.614895432
0.467
0.35676349
0.279044293
0.208302949
0.119
-0.002097944
-0.119
-0.193585616
-0.228439848
-0.236324157
-0.23
-0.219658788
-0.205211733
-0.184
-0.155658858
-0.129
-0.112300491
-0.102522463
-0.093799311
-0.080477968
-0.061816681
-0.041985011
-0.025253201
-0.013295874
-0.005192032
9.22E-05
0.003573653
0.005879332
0.007246198
0.007894281
0.00804361
0.00791331
0.007701766
0.007586613
0.007744587
0.008352425
0.009586862
0.011624634
0.014630386
0.018490697
0.02281408
0.027196958
0.031235752
0.034539485
0.037006956
0.038826743
0.040200026
0.041327981
0.042411786
0.043644358
0.045028622
0.046377511
0.047495697
0.048187853
0.04825865
0.04752695
0.046137921
0.044563048
0.043287999
0.042798445
0.04356223
0.045637222
0.048671314
0.052294571
0.05613706
0.059828848
0.063
0.065399795
0.067254358
0.068909022
0.070709125
0.073
0.076041844
0.079754291
0.083971835
0.088528972
0.093260195
0.098
0.1026066
0.107033088
0.111256276
0.115252976
0.119
0.12259873
0.126648822
0.131874504
0.139
0.148378514
0.158879153
0.169
0.177866376
0.187112543
0.199
0.214572149
0.23
0.241349544
0.249139084
0.255
0.260301407
0.265363355
0.270243625
0.275
0.279628771
0.283880263
0.28744331
0.290006744
0.291259401
0.290890113
0.288611752
0.284690076
0.279943727
0.275215385
0.271347731
0.269130329
0.268131032
0.26669599
0.263118231
0.255690784
0.242861715
0.226644879
0.212397476
0.20051535
0.186501506
0.170778094
0.158718878
0.151551512
0.146134001
0.139134362
0.127379248
0.111343932
0.095043873
0.080159165
0.065945262
0.053144408
0.044017763
0.039140635
0.037333122
0.03733901
0.037902085
0.03779931
0.036570751
0.034519579
0.031982142
0.029294788
0.026784998
0.02457636
0.02258856
0.020732421
0.018918765
0.017062091
0.015161469
0.013300536
0.011566608
0.010046999
0.008829025
0.008
0.007609817
0.007558673
0
0
0
0
0
0
0
0
0
0
0
0
0
0
0
0
0
0
0
0
0
0
0
0
0
0
0
0
0
0
0
0
0
0
0
0
0
0
0
0
0
0
0
0
0
0
0
0
0
0
0
0
0
0
0
0
0
0
0
0
0
0
0
0
0
0
0
0
0
0
0
0
0
0
0
0
0
0
0
0
0
0
0
0
0
0
0
0
0
0
0
0
0
0
0
0
0
0
0
0
0
0
0
0
0
0
0
0
0
0
0
0
0
0
0
0
0
0
0
0
0
0
0
0
0
0
0
0
0
0
0
0
0
0
0
0
0
0
0
0
0
0
0
0
0
0
0
0
0
0
0
0
0
0
0
0
0
0
0
0
0
0
0
0
0
0
0
0
0
0
0
0
0
0
0
0
0
0
0
0
0
0
0
0
0
0
0
0
0
0
0
0
0
0
0
0
0
0
0
0
0
0
0
0
0
0
0
0
0
0
0
0
0
0
0
0
0
0
0
0
0
0
0
0
0
0
0
0
0
0
0
0
0
0
0
0
0
0
0
0
0
0
0
0
0
0
0
0
0
0
0
0
0
0
0
0
0
0
0
0
0
0
0
0
0
0
0
0
0
0
0
0
0
0
0
0
0
0
0
0
0
0
0
0
0
0
0
0
0
0
0
0
0
0
0
0
0
0
0
0
0
0
0
0
0
0
0
0
0
0
0
0
0
0
0
0
0
0
0
0
0
0
0
0
0
0
0
0
0
0
0
0
0
0
0
0
0
0
0
0
0
0
0
0
0
0
0
0
0
0
0
0
0
0
0
0
0
0
0
0
0
0
0
0
0
0
0
0
0
0
0
0
0
0
0
0
0
0
0
0
0
0
0
0
0
0
0
0
0
0
0
0
0
0
0
0
0
0
0
0
0
0
0
0
0
0
0
0
0
0
0
0
0
0
0
0
0
0
0
0
0
0
0
0
0
0
0
0
0
0
0
0
0
0
0
0
0
0
0
0
0
0
0
0
0
0
0
0
0
0
0
0
0
0
0
0
0
0
0
0
0
0
0
0
0
0
0
0
0
0
0
0
0
0
0
0
0
0
0
0
0
0
0
0
0
0
0
0
0
-0.003411222
-0.002625583
-0.001954161
-0.001330946
-0.000689931
3.49E-05
0.000909534
0.002
0.0033723
0.005092441
0.007226433
0.009840283
0.013
0.016702565
0.020668854
0.024550716
0.028
0.030767482
0.032999647
0.03494191
0.036839684
0.038938381
0.041483415
0.044703773
0.048450638
0.052197387
0.055400972
0.057518345
0.058028978
0.056930293
0.054737662
0.05198898
0.049222139
0.046960597
0.045395813
0.044387245
0.043779918
0.043418856
0.043149083
0.042812251
0.042172466
0.040916284
0.038726891
0.035287473
0.030304953
0.024032215
0.017268101
0.010835194
0.005534941
0.001682716
-0.000892179
-0.002381577
-0.00297731
-0.002871028
-0.00225019
-0.001298063
-0.000197731
0.000867721
0.001715208
0.002169013
0.002222905
0.002040132
0.001791313
0.001647067
0.001778012
0.002339869
0.003145692
0.003665872
0.003355901
0.001671271
-0.001932527
-0.008
-0.016610081
-0.025979403
-0.033859024
-0.038
-0.037912588
-0.040143838
-0.053
-0.078662121
-0.094810442
-0.073
0.002679539
0.098
0.178117881
0.255866881
0.356
0.491529085
0.628501384
0.72122299
0.724
0.614895432
0.467
0.35676349
0.279044293
0.208302949
0.119
-0.002097944
-0.119
-0.193585616
-0.228439848
-0.236324157
-0.23
-0.219658788
-0.205211733
-0.184
-0.155658858
-0.129
-0.112300491
-0.102522463
-0.093799311
-0.080477968
-0.061816681
-0.041985011
-0.025253201
-0.013295874
-0.005192032
9.22E-05
0.003573653
0.005879332
0.007246198
0.007894281
0.00804361
0.00791331
0.007701766
0.007586613
0.007744587
0.008352425
0.009586862
0.011624634
0.014630386
0.018490697
0.02281408
0.027196958
0.031235752
0.034539485
0.037006956
0.038826743
0.040200026
0.041327981
0.042411786
0.043644358
0.045028622
0.046377511
0.047495697
0.048187853
0.04825865
0.04752695
0.046137921
0.044563048
0.043287999
0.042798445
0.04356223
0.045637222
0.048671314
0.052294571
0.05613706
0.059828848
0.063
0.065399795
0.067254358
0.068909022
0.070709125
0.073
0.076041844
0.079754291
0.083971835
0.088528972
0.093260195
0.098
0.1026066
0.107033088
0.111256276
0.115252976
0.119
0.12259873
0.126648822
0.131874504
0.139
0.148378514
0.158879153
0.169
0.177866376
0.187112543
0.199
0.214572149
0.23
0.241349544
0.249139084
0.255
0.260301407
0.265363355
0.270243625
0.275
0.279628771
0.283880263
0.28744331
0.290006744
0.291259401
0.290890113
0.288611752
0.284690076
0.279943727
0.275215385
0.271347731
0.269130329
0.268131032
0.26669599
0.263118231
0.255690784
0.242861715
0.226644879
0.212397476
0.20051535
0.186501506
0.170778094
0.158718878
0.151551512
0.146134001
0.139134362
0.127379248
0.111343932
0.095043873
0.080159165
0.065945262
0.053144408
0.044017763
0.039140635
0.037333122
0.03733901
0.037902085
0.03779931
0.036570751
0.034519579
0.031982142
0.029294788
0.026784998
0.02457636
0.02258856
0.020732421
0.018918765
0.017062091
0.015161469
0.013300536
0.011566608
0.010046999
0.008829025
0.008
0.007609817
0.007558673
0
0
0
0
0
0
0
0
0
0
0
0
0
0
0
0
0
0
0
0
0
0
0
0
0
0
0
0
0
0
0
0
0
0
0
0
0
0
0
0
0
0
0
0
0
0
0
0
0
0
0
0
0
0
0
0
0
0
0
0
0
0
0
0
0
0
0
0
0
0
0
0
0
0
0
0
0
0
0
0
0
0
0
0
0
0
0
0
0
0
0
0
0
0
0
0
0
0
0
0
0
0
0
0
0
0
0
0
0
0
0
0
0
0
0
0
0
0
0
0
0
0
0
0
0
0
0
0
0
0
0
0
0
0
0
0
0
0
0
0
0
0
0
0
0
0
0
0
0
0
0
0
0
0
0
0
0
0
0
0
0
0
0
0
0
0
0
0
0
0
0
0
0
0
0
0
0
0
0
0
0
0
0
0
0
0
0
0
0
0
0
0
0
0
0
0
0
0
0
0
0
0
0
0
0
0
0
0
0
0
0
0
0
0
0
0
0
0
0
0
0
0
0
0
0
0
0
0
0
0
0
0
0
0
0
0
0
0
0
0
0
0
0
0
0
0
0
0
0
0
0
0
0
0
0
0
0
0
0
0
0
0
0
0
0
0
0
0
0
0
0
0
0
0
0
0
0
0
0
0
0
0
0
0
0
0
0
0
0
0
0
0
0
0
0
0
0
0
0
0
0
0
0
0
0
0
0
0
0
0
0
0
0
0
0
0
0
0
0
0
0
0
0
0
0
0
0
0
0
0
0
0
0
0
0
0
0
0
0
0
0
0
0
0
0
0
0
0
0
0
0
0
0
0
0
0
0
0
0
0
0
0
0
0
0
0
0
0
0
0
0
0
0
0
0
0
0
0
0
0
0
0
0
0
0
0
0
0
0
0
0
0
0
0
0
0
0
0
0
0
0
0
0
0
0
0
0
0
0
0
0
0
0
0
0
0
0
0
0
0
0
0
0
0
0
0
0
0
0
0
0
0
0
0
0
0
0
0
0
0
0
0
0
0
0
0
0
0
0
0
0
0
0
0
0
0
0
0
0
0
0
0
0
0
0
0
0
0
0
0
0
0
0
0
0
0
0
0
0
0
0
0
0
0
0
0
0
-0.003411222
-0.002625583
-0.001954161
-0.001330946
-0.000689931
3.49E-05
0.000909534
0.002
0.0033723
0.005092441
0.007226433
0.009840283
0.013
0.016702565
0.020668854
0.024550716
0.028
0.030767482
0.032999647
0.03494191
0.036839684
0.038938381
0.041483415
0.044703773
0.048450638
0.052197387
0.055400972
0.057518345
0.058028978
0.056930293
0.054737662
0.05198898
0.049222139
0.046960597
0.045395813
0.044387245
0.043779918
0.043418856
0.043149083
0.042812251
0.042172466
0.040916284
0.038726891
0.035287473
0.030304953
0.024032215
0.017268101
0.010835194
0.005534941
0.001682716
-0.000892179
-0.002381577
-0.00297731
-0.002871028
-0.00225019
-0.001298063
-0.000197731
0.000867721
0.001715208
0.002169013
0.002222905
0.002040132
0.001791313
0.001647067
0.001778012
0.002339869
0.003145692
0.003665872
0.003355901
0.001671271
-0.001932527
-0.008
-0.016610081
-0.025979403
-0.033859024
-0.038
-0.037912588
-0.040143838
-0.053
-0.078662121
-0.094810442
-0.073
0.002679539
0.098
0.178117881
0.255866881
0.356
0.491529085
0.628501384
0.72122299
0.724
0.614895432
0.467
0.35676349
0.279044293
0.208302949
0.119
-0.002097944
-0.119
-0.193585616
-0.228439848
-0.236324157
-0.23
-0.219658788
-0.205211733
-0.184
-0.155658858
-0.129
-0.112300491
-0.102522463
-0.093799311
-0.080477968
-0.061816681
-0.041985011
-0.025253201
-0.013295874
-0.005192032
9.22E-05
0.003573653
0.005879332
0.007246198
0.007894281
0.00804361
0.00791331
0.007701766
0.007586613
0.007744587
0.008352425
0.009586862
0.011624634
0.014630386
0.018490697
0.02281408
0.027196958
0.031235752
0.034539485
0.037006956
0.038826743
0.040200026
0.041327981
0.042411786
0.043644358
0.045028622
0.046377511
0.047495697
0.048187853
0.04825865
0.04752695
0.046137921
0.044563048
0.043287999
0.042798445
0.04356223
0.045637222
0.048671314
0.052294571
0.05613706
0.059828848
0.063
0.065399795
0.067254358
0.068909022
0.070709125
0.073
0.076041844
0.079754291
0.083971835
0.088528972
0.093260195
0.098
0.1026066
0.107033088
0.111256276
0.115252976
0.119
0.12259873
0.126648822
0.131874504
0.139
0.148378514
0.158879153
0.169
0.177866376
0.187112543
0.199
0.214572149
0.23
0.241349544
0.249139084
0.255
0.260301407
0.265363355
0.270243625
0.275
0.279628771
0.283880263
0.28744331
0.290006744
0.291259401
0.290890113
0.288611752
0.284690076
0.279943727
0.275215385
0.271347731
0.269130329
0.268131032
0.26669599
0.263118231
0.255690784
0.242861715
0.226644879
0.212397476
0.20051535
0.186501506
0.170778094
0.158718878
0.151551512
0.146134001
0.139134362
0.127379248
0.111343932
0.095043873
0.080159165
0.065945262
0.053144408
0.044017763
0.039140635
0.037333122
0.03733901
0.037902085
0.03779931
0.036570751
0.034519579
0.031982142
0.029294788
0.026784998
0.02457636
0.02258856
0.020732421
0.018918765
0.017062091
0.015161469
0.013300536
0.011566608
0.010046999
0.008829025
0.008
0.007609817
0.007558673
0
0
0
0
0
0
0
0
0
0
0
0
0
0
0
0
0
0
0
0
0
0
0
0
0
0
0
0
0
0
0
0
0
0
0
0
0
0
0
0
0
0
0
0
0
0
0
0
0
0
0
0
0
0
0
0
0
0
0
0
0
0
0
0
0
0
0
0
0
0
0
0
0
0
0
0
0
0
0
0
0
0
0
0
0
0
0
0
0
0
0
0
0
0
0
0
0
0
0
0
0
0
0
0
0
0
0
0
0
0
0
0
0
0
0
0
0
0
0
0
0
0
0
0
0
0
0
0
0
0
0
0
0
0
0
0
0
0
0
0
0
0
0
0
0
0
0
0
0
0
0
0
0
0
0
0
0
0
0
0
0
0
0
0
0
0
0
0
0
0
0
0
0
0
0
0
0
0
0
0
0
0
0
0
0
0
0
0
0
0
0
0
0
0
0
0
0
0
0
0
0
0
0
0
0
0
0
0
0
0
0
0
0
0
0
0
0
0
0
0
0
0
0
0
0
0
0
0
0
0
0
0
0
0
0
0
0
0
0
0
0
0
0
0
0
0
0
0
0
0
0
0
0
0
0
0
0
0
0
0
0
0
0
0
0
0
0
0
0
0
0
0
0
0
0
0
0
0
0
0
0
0
0
0
0
0
0
0
0
0
0
0
0
0
0
0
0
0
0
0
0
0
0
0
0
0
0
0
0
0
0
0
0
0
0
0
0
0
0
0
0
0
0
0
0
0
0
0
0
0
0
0
0
0
0
0
0
0
0
0
0
0
0
0
0
0
0
0
0
0
0
0
0
0
0
0
0
0
0
0
0
0
0
0
0
0
0
0
0
0
0
0
0
0
0
0
0
0
0
0
0
0
0
0
0
0
0
0
0
0
0
0
0
0
0
0
0
0
0
0
0
0
0
0
0
0
0
0
0
0
0
0
0
0
0
0
0
0
0
0
0
0
0
0
0
0
0
0
0
0
0
0
0
0
0
0
0
0
0
0
0
0
0
0
0
0
0
0
0
0
0
0
0
0
0
0
0
0
0
0
0
0
0
0
0
0
0
0
0
0
0
0
0
0
0
0
0
0
0
0
0
0
0
0
0
-0.003411222
-0.002625583
-0.001954161
-0.001330946
-0.000689931
3.49E-05
0.000909534
0.002
0.0033723
0.005092441
0.007226433
0.009840283
0.013
0.016702565
0.020668854
0.024550716
0.028
0.030767482
0.032999647
0.03494191
0.036839684
0.038938381
0.041483415
0.044703773
0.048450638
0.052197387
0.055400972
0.057518345
0.058028978
0.056930293
0.054737662
0.05198898
0.049222139
0.046960597
0.045395813
0.044387245
0.043779918
0.043418856
0.043149083
0.042812251
0.042172466
0.040916284
0.038726891
0.035287473
0.030304953
0.024032215
0.017268101
0.010835194
0.005534941
0.001682716
-0.000892179
-0.002381577
-0.00297731
-0.002871028
-0.00225019
-0.001298063
-0.000197731
0.000867721
0.001715208
0.002169013
0.002222905
0.002040132
0.001791313
0.001647067
0.001778012
0.002339869
0.003145692
0.003665872
0.003355901
0.001671271
-0.001932527
-0.008
-0.016610081
-0.025979403
-0.033859024
-0.038
-0.037912588
-0.040143838
-0.053
-0.078662121
-0.094810442
-0.073
0.002679539
0.098
0.178117881
0.255866881
0.356
0.491529085
0.628501384
0.72122299
0.724
0.614895432
0.467
0.35676349
0.279044293
0.208302949
0.119
-0.002097944
-0.119
-0.193585616
-0.228439848
-0.236324157
-0.23
-0.219658788
-0.205211733
-0.184
-0.155658858
-0.129
-0.112300491
-0.102522463
-0.093799311
-0.080477968
-0.061816681
-0.041985011
-0.025253201
-0.013295874
-0.005192032
9.22E-05
0.003573653
0.005879332
0.007246198
0.007894281
0.00804361
0.00791331
0.007701766
0.007586613
0.007744587
0.008352425
0.009586862
0.011624634
0.014630386
0.018490697
0.02281408
0.027196958
0.031235752
0.034539485
0.037006956
0.038826743
0.040200026
0.041327981
0.042411786
0.043644358
0.045028622
0.046377511
0.047495697
0.048187853
0.04825865
0.04752695
0.046137921
0.044563048
0.043287999
0.042798445
0.04356223
0.045637222
0.048671314
0.052294571
0.05613706
0.059828848
0.063
0.065399795
0.067254358
0.068909022
0.070709125
0.073
0.076041844
0.079754291
0.083971835
0.088528972
0.093260195
0.098
0.1026066
0.107033088
0.111256276
0.115252976
0.119
0.12259873
0.126648822
0.131874504
0.139
0.148378514
0.158879153
0.169
0.177866376
0.187112543
0.199
0.214572149
0.23
0.241349544
0.249139084
0.255
0.260301407
0.265363355
0.270243625
0.275
0.279628771
0.283880263
0.28744331
0.290006744
0.291259401
0.290890113
0.288611752
0.284690076
0.279943727
0.275215385
0.271347731
0.269130329
0.268131032
0.26669599
0.263118231
0.255690784
0.242861715
0.226644879
0.212397476
0.20051535
0.186501506
0.170778094
0.158718878
0.151551512
0.146134001
0.139134362
0.127379248
0.111343932
0.095043873
0.080159165
0.065945262
0.053144408
0.044017763
0.039140635
0.037333122
0.03733901
0.037902085
0.03779931
0.036570751
0.034519579
0.031982142
0.029294788
0.026784998
0.02457636
0.02258856
0.020732421
0.018918765
0.017062091
0.015161469
0.013300536
0.011566608
0.010046999
0.008829025
0.008
0.007609817
0.007558673
0
0
0
0
0
0
0
0
0
0
0
0
0
0
0
0
0
0
0
0
0
0
0
0
0
0
0
0
0
0
0
0
0
0
0
0
0
0
0
0
0
0
0
0
0
0
0
0
0
0
0
0
0
0
0
0
0
0
0
0
0
0
0
0
0
0
0
0
0
0
0
0
0
0
0
0
0
0
0
0
0
0
0
0
0
0
0
0
0
0
0
0
0
0
0
0
0
0
0
0
0
0
0
0
0
0
0
0
0
0
0
0
0
0
0
0
0
0
0
0
0
0
0
0
0
0
0
0
0
0
0
0
0
0
0
0
0
0
0
0
0
0
0
0
0
0
0
0
0
0
0
0
0
0
0
0
0
0
0
0
0
0
0
0
0
0
0
0
0
0
0
0
0
0
0
0
0
0
0
0
0
0
0
0
0
0
0
0
0
0
0
0
0
0
0
0
0
0
0
0
0
0
0
0
0
0
0
0
0
0
0
0
0
0
0
0
0
0
0
0
0
0
0
0
0
0
0
0
0
0
0
0
0
0
0
0
0
0
0
0
0
0
0
0
0
0
0
0
0
0
0
0
0
0
0
0
0
0
0
0
0
0
0
0
0
0
0
0
0
0
0
0
0
0
0
0
0
0
0
0
0
0
0
0
0
0
0
0
0
0
0
0
0
0
0
0
0
0
0
0
0
0
0
0
0
0
0
0
0
0
0
0
0
0
0
0
0
0
0
0
0
0
0
0
0
0
0
0
0
0
0
0
0
0
0
0
0
0
0
0
0
0
0
0
0
0
0
0
0
0
0
0
0
0
0
0
0
0
0
0
0
0
0
0
0
0
0
0
0
0
0
0
0
0
0
0
0
0
0
0
0
0
0
0
0
0
0
0
0
0
0
0
0
0
0
0
0
0
0
0
0
0
0
0
0
0
0
0
0
0
0
0
0
0
0
0
0
0
0
0
0
0
0
0
0
0
0
0
0
0
0
0
0
0
0
0
0
0
0
0
0
0
0
0
0
0
0
0
0
0
0
0
0
0
0
0
0
0
0
0
0
0
0
0
0
0
0
0
0
0
0
0
0
0
0
0
0
0
0
0
0
0
0
0
-0.003411222
-0.002625583
-0.001954161
-0.001330946
-0.000689931
3.49E-05
0.000909534
0.002
0.0033723
0.005092441
0.007226433
0.009840283
0.013
0.016702565
0.020668854
0.024550716
0.028
0.030767482
0.032999647
0.03494191
0.036839684
0.038938381
0.041483415
0.044703773
0.048450638
0.052197387
0.055400972
0.057518345
0.058028978
0.056930293
0.054737662
0.05198898
0.049222139
0.046960597
0.045395813
0.044387245
0.043779918
0.043418856
0.043149083
0.042812251
0.042172466
0.040916284
0.038726891
0.035287473
0.030304953
0.024032215
0.017268101
0.010835194
0.005534941
0.001682716
-0.000892179
-0.002381577
-0.00297731
-0.002871028
-0.00225019
-0.001298063
-0.000197731
0.000867721
0.001715208
0.002169013
0.002222905
0.002040132
0.001791313
0.001647067
0.001778012
0.002339869
0.003145692
0.003665872
0.003355901
0.001671271
-0.001932527
-0.008
-0.016610081
-0.025979403
-0.033859024
-0.038
-0.037912588
-0.040143838
-0.053
-0.078662121
-0.094810442
-0.073
0.002679539
0.098
0.178117881
0.255866881
0.356
0.491529085
0.628501384
0.72122299
0.724
0.614895432
0.467
0.35676349
0.279044293
0.208302949
0.119
-0.002097944
-0.119
-0.193585616
-0.228439848
-0.236324157
-0.23
-0.219658788
-0.205211733
-0.184
-0.155658858
-0.129
-0.112300491
-0.102522463
-0.093799311
-0.080477968
-0.061816681
-0.041985011
-0.025253201
-0.013295874
-0.005192032
9.22E-05
0.003573653
0.005879332
0.007246198
0.007894281
0.00804361
0.00791331
0.007701766
0.007586613
0.007744587
0.008352425
0.009586862
0.011624634
0.014630386
0.018490697
0.02281408
0.027196958
0.031235752
0.034539485
0.037006956
0.038826743
0.040200026
0.041327981
0.042411786
0.043644358
0.045028622
0.046377511
0.047495697
0.048187853
0.04825865
0.04752695
0.046137921
0.044563048
0.043287999
0.042798445
0.04356223
0.045637222
0.048671314
0.052294571
0.05613706
0.059828848
0.063
0.065399795
0.067254358
0.068909022
0.070709125
0.073
0.076041844
0.079754291
0.083971835
0.088528972
0.093260195
0.098
0.1026066
0.107033088
0.111256276
0.115252976
0.119
0.12259873
0.126648822
0.131874504
0.139
0.148378514
0.158879153
0.169
0.177866376
0.187112543
0.199
0.214572149
0.23
0.241349544
0.249139084
0.255
0.260301407
0.265363355
0.270243625
0.275
0.279628771
0.283880263
0.28744331
0.290006744
0.291259401
0.290890113
0.288611752
0.284690076
0.279943727
0.275215385
0.271347731
0.269130329
0.268131032
0.26669599
0.263118231
0.255690784
0.242861715
0.226644879
0.212397476
0.20051535
0.186501506
0.170778094
0.158718878
0.151551512
0.146134001
0.139134362
0.127379248
0.111343932
0.095043873
0.080159165
0.065945262
0.053144408
0.044017763
0.039140635
0.037333122
0.03733901
0.037902085
0.03779931
0.036570751
0.034519579
0.031982142
0.029294788
0.026784998
0.02457636
0.02258856
0.020732421
0.018918765
0.017062091
0.015161469
0.013300536
0.011566608
0.010046999
0.008829025
0.008
0.007609817
0.007558673
0
0
0
0
0
0
0
0
0
0
0
0
0
0
0
0
0
0
0
0
0
0
0
0
0
0
0
0
0
0
0
0
0
0
0
0
0
0
0
0
0
0
0
0
0
0
0
0
0
0
0
0
0
0
0
0
0
0
0
0
0
0
0
0
0
0
0
0
0
0
0
0
0
0
0
0
0
0
0
0
0
0
0
0
0
0
0
0
0
0
0
0
0
0
0
0
0
0
0
0
0
0
0
0
0
0
0
0
0
0
0
0
0
0
0
0
0
0
0
0
0
0
0
0
0
0
0
0
0
0
0
0
0
0
0
0
0
0
0
0
0
0
0
0
0
0
0
0
0
0
0
0
0
0
0
0
0
0
0
0
0
0
0
0
0
0
0
0
0
0
0
0
0
0
0
0
0
0
0
0
0
0
0
0
0
0
0
0
0
0
0
0
0
0
0
0
0
0
0
0
0
0
0
0
0
0
0
0
0
0
0
0
0
0
0
0
0
0
0
0
0
0
0
0
0
0
0
0
0
0
0
0
0
0
0
0
0
0
0
0
0
0
0
0
0
0
0
0
0
0
0
0
0
0
0
0
0
0
0
0
0
0
0
0
0
0
0
0
0
0
0
0
0
0
0
0
0
0
0
0
0
0
0
0
0
0
0
0
0
0
0
0
0
0
0
0
0
0
0
0
0
0
0
0
0
0
0
0
0
0
0
0
0
0
0
0
0
0
0
0
0
0
0
0
0
0
0
0
0
0
0
0
0
0
0
0
0
0
0
0
0
0
0
0
0
0
0
0
0
0
0
0
0
0
0
0
0
0
0
0
0
0
0
0
0
0
0
0
0
0
0
0
0
0
0
0
0
0
0
0
0
0
0
0
0
0
0
0
0
0
0
0
0
0
0
0
0
0
0
0
0
0
0
0
0
0
0
0
0
0
0
0
0
0
0
0
0
0
0
0
0
0
0
0
0
0
0
0
0
0
0
0
0
0
0
0
0
0
0
0
0
0
0
0
0
0
0
0
0
0
0
0
0
0
0
0
0
0
0
0
0
0
0
0
0
0
0
0
0
0
0
0
0
0
0
0
0
0
0
0
0
0
0
-0.003411222
-0.002625583
-0.001954161
-0.001330946
-0.000689931
3.49E-05
0.000909534
0.002
0.0033723
0.005092441
0.007226433
0.009840283
0.013
0.016702565
0.020668854
0.024550716
0.028
0.030767482
0.032999647
0.03494191
0.036839684
0.038938381
0.041483415
0.044703773
0.048450638
0.052197387
0.055400972
0.057518345
0.058028978
0.056930293
0.054737662
0.05198898
0.049222139
0.046960597
0.045395813
0.044387245
0.043779918
0.043418856
0.043149083
0.042812251
0.042172466
0.040916284
0.038726891
0.035287473
0.030304953
0.024032215
0.017268101
0.010835194
0.005534941
0.001682716
-0.000892179
-0.002381577
-0.00297731
-0.002871028
-0.00225019
-0.001298063
-0.000197731
0.000867721
0.001715208
0.002169013
0.002222905
0.002040132
0.001791313
0.001647067
0.001778012
0.002339869
0.003145692
0.003665872
0.003355901
0.001671271
-0.001932527
-0.008
-0.016610081
-0.025979403
-0.033859024
-0.038
-0.037912588
-0.040143838
-0.053
-0.078662121
-0.094810442
-0.073
0.002679539
0.098
0.178117881
0.255866881
0.356
0.491529085
0.628501384
0.72122299
0.724
0.614895432
0.467
0.35676349
0.279044293
0.208302949
0.119
-0.002097944
-0.119
-0.193585616
-0.228439848
-0.236324157
-0.23
-0.219658788
-0.205211733
-0.184
-0.155658858
-0.129
-0.112300491
-0.102522463
-0.093799311
-0.080477968
-0.061816681
-0.041985011
-0.025253201
-0.013295874
-0.005192032
9.22E-05
0.003573653
0.005879332
0.007246198
0.007894281
0.00804361
0.00791331
0.007701766
0.007586613
0.007744587
0.008352425
0.009586862
0.011624634
0.014630386
0.018490697
0.02281408
0.027196958
0.031235752
0.034539485
0.037006956
0.038826743
0.040200026
0.041327981
0.042411786
0.043644358
0.045028622
0.046377511
0.047495697
0.048187853
0.04825865
0.04752695
0.046137921
0.044563048
0.043287999
0.042798445
0.04356223
0.045637222
0.048671314
0.052294571
0.05613706
0.059828848
0.063
0.065399795
0.067254358
0.068909022
0.070709125
0.073
0.076041844
0.079754291
0.083971835
0.088528972
0.093260195
0.098
0.1026066
0.107033088
0.111256276
0.115252976
0.119
0.12259873
0.126648822
0.131874504
0.139
0.148378514
0.158879153
0.169
0.177866376
0.187112543
0.199
0.214572149
0.23
0.241349544
0.249139084
0.255
0.260301407
0.265363355
0.270243625
0.275
0.279628771
0.283880263
0.28744331
0.290006744
0.291259401
0.290890113
0.288611752
0.284690076
0.279943727
0.275215385
0.271347731
0.269130329
0.268131032
0.26669599
0.263118231
0.255690784
0.242861715
0.226644879
0.212397476
0.20051535
0.186501506
0.170778094
0.158718878
0.151551512
0.146134001
0.139134362
0.127379248
0.111343932
0.095043873
0.080159165
0.065945262
0.053144408
0.044017763
0.039140635
0.037333122
0.03733901
0.037902085
0.03779931
0.036570751
0.034519579
0.031982142
0.029294788
0.026784998
0.02457636
0.02258856
0.020732421
0.018918765
0.017062091
0.015161469
0.013300536
0.011566608
0.010046999
0.008829025
0.008
0.007609817
0.007558673
0
0
0
0
0
0
0
0
0
0
0
0
0
0
0
0
0
0
0
0
0
0
0
0
0
0
0
0
0
0
0
0
0
0
0
0
0
0
0
0
0
0
0
0
0
0
0
0
0
0
0
0
0
0
0
0
0
0
0
0
0
0
0
0
0
0
0
0
0
0
0
0
0
0
0
0
0
0
0
0
0
0
0
0
0
0
0
0
0
0
0
0
0
0
0
0
0
0
0
0
0
0
0
0
0
0
0
0
0
0
0
0
0
0
0
0
0
0
0
0
0
0
0
0
0
0
0
0
0
0
0
0
0
0
0
0
0
0
0
0
0
0
0
0
0
0
0
0
0
0
0
0
0
0
0
0
0
0
0
0
0
0
0
0
0
0
0
0
0
0
0
0
0
0
0
0
0
0
0
0
0
0
0
0
0
0
0
0
0
0
0
0
0
0
0
0
0
0
0
0
0
0
0
0
0
0
0
0
0
0
0
0
0
0
0
0
0
0
0
0
0
0
0
0
0
0
0
0
0
0
0
0
0
0
0
0
0
0
0
0
0
0
0
0
0
0
0
0
0
0
0
0
0
0
0
0
0
0
0
0
0
0
0
0
0
0
0
0
0
0
0
0
0
0
0
0
0
0
0
0
0
0
0
0
0
0
0
0
0
0
0
0
0
0
0
0
0
0
0
0
0
0
0
0
0
0
0
0
0
0
0
0
0
0
0
0
0
0
0
0
0
0
0
0
0
0
0
0
0
0
0
0
0
0
0
0
0
0
0
0
0
0
0
0
0
0
0
0
0
0
0
0
0
0
0
0
0
0
0
0
0
0
0
0
0
0
0
0
0
0
0
0
0
0
0
0
0
0
0
0
0
0
0
0
0
0
0
0
0
0
0
0
0
0
0
0
0
0
0
0
0
0
0
0
0
0
0
0
0
0
0
0
0
0
0
0
0
0
0
0
0
0
0
0
0
0
0
0
0
0
0
0
0
0
0
0
0
0
0
0
0
0
0
0
0
0
0
0
0
0
0
0
0
0
0
0
0
0
0
0
0
0
0
0
0
0
0
0
0
0
0
0
0
0
0
0
0
0
0
0
0
0
-0.003411222
-0.002625583
-0.001954161
-0.001330946
-0.000689931
3.49E-05
0.000909534
0.002
0.0033723
0.005092441
0.007226433
0.009840283
0.013
0.016702565
0.020668854
0.024550716
0.028
0.030767482
0.032999647
0.03494191
0.036839684
0.038938381
0.041483415
0.044703773
0.048450638
0.052197387
0.055400972
0.057518345
0.058028978
0.056930293
0.054737662
0.05198898
0.049222139
0.046960597
0.045395813
0.044387245
0.043779918
0.043418856
0.043149083
0.042812251
0.042172466
0.040916284
0.038726891
0.035287473
0.030304953
0.024032215
0.017268101
0.010835194
0.005534941
0.001682716
-0.000892179
-0.002381577
-0.00297731
-0.002871028
-0.00225019
-0.001298063
-0.000197731
0.000867721
0.001715208
0.002169013
0.002222905
0.002040132
0.001791313
0.001647067
0.001778012
0.002339869
0.003145692
0.003665872
0.003355901
0.001671271
-0.001932527
-0.008
-0.016610081
-0.025979403
-0.033859024
-0.038
-0.037912588
-0.040143838
-0.053
-0.078662121
-0.094810442
-0.073
0.002679539
0.098
0.178117881
0.255866881
0.356
0.491529085
0.628501384
0.72122299
0.724
0.614895432
0.467
0.35676349
0.279044293
0.208302949
0.119
-0.002097944
-0.119
-0.193585616
-0.228439848
-0.236324157
-0.23
-0.219658788
-0.205211733
-0.184
-0.155658858
-0.129
-0.112300491
-0.102522463
-0.093799311
-0.080477968
-0.061816681
-0.041985011
-0.025253201
-0.013295874
-0.005192032
9.22E-05
0.003573653
0.005879332
0.007246198
0.007894281
0.00804361
0.00791331
0.007701766
0.007586613
0.007744587
0.008352425
0.009586862
0.011624634
0.014630386
0.018490697
0.02281408
0.027196958
0.031235752
0.034539485
0.037006956
0.038826743
0.040200026
0.041327981
0.042411786
0.043644358
0.045028622
0.046377511
0.047495697
0.048187853
0.04825865
0.04752695
0.046137921
0.044563048
0.043287999
0.042798445
0.04356223
0.045637222
0.048671314
0.052294571
0.05613706
0.059828848
0.063
0.065399795
0.067254358
0.068909022
0.070709125
0.073
0.076041844
0.079754291
0.083971835
0.088528972
0.093260195
0.098
0.1026066
0.107033088
0.111256276
0.115252976
0.119
0.12259873
0.126648822
0.131874504
0.139
0.148378514
0.158879153
0.169
0.177866376
0.187112543
0.199
0.214572149
0.23
0.241349544
0.249139084
0.255
0.260301407
0.265363355
0.270243625
0.275
0.279628771
0.283880263
0.28744331
0.290006744
0.291259401
0.290890113
0.288611752
0.284690076
0.279943727
0.275215385
0.271347731
0.269130329
0.268131032
0.26669599
0.263118231
0.255690784
0.242861715
0.226644879
0.212397476
0.20051535
0.186501506
0.170778094
0.158718878
0.151551512
0.146134001
0.139134362
0.127379248
0.111343932
0.095043873
0.080159165
0.065945262
0.053144408
0.044017763
0.039140635
0.037333122
0.03733901
0.037902085
0.03779931
0.036570751
0.034519579
0.031982142
0.029294788
0.026784998
0.02457636
0.02258856
0.020732421
0.018918765
0.017062091
0.015161469
0.013300536
0.011566608
0.010046999
0.008829025
0.008
0.007609817
0.007558673
0
0
0
0
0
0
0
0
0
0
0
0
0
0
0
0
0
0
0
0
0
0
0
0
0
0
0
0
0
0
0
0
0
0
0
0
0
0
0
0
0
0
0
0
0
0
0
0
0
0
0
0
0
0
0
0
0
0
0
0
0
0
0
0
0
0
0
0
0
0
0
0
0
0
0
0
0
0
0
0
0
0
0
0
0
0
0
0
0
0
0
0
0
0
0
0
0
0
0
0
0
0
0
0
0
0
0
0
0
0
0
0
0
0
0
0
0
0
0
0
0
0
0
0
0
0
0
0
0
0
0
0
0
0
0
0
0
0
0
0
0
0
0
0
0
0
0
0
0
0
0
0
0
0
0
0
0
0
0
0
0
0
0
0
0
0
0
0
0
0
0
0
0
0
0
0
0
0
0
0
0
0
0
0
0
0
0
0
0
0
0
0
0
0
0
0
0
0
0
0
0
0
0
0
0
0
0
0
0
0
0
0
0
0
0
0
0
0
0
0
0
0
0
0
0
0
0
0
0
0
0
0
0
0
0
0
0
0
0
0
0
0
0
0
0
0
0
0
0
0
0
0
0
0
0
0
0
0
0
0
0
0
0
0
0
0
0
0
0
0
0
0
0
0
0
0
0
0
0
0
0
0
0
0
0
0
0
0
0
0
0
0
0
0
0
0
0
0
0
0
0
0
0
0
0
0
0
0
0
0
0
0
0
0
0
0
0
0
0
0
0
0
0
0
0
0
0
0
0
0
0
0
0
0
0
0
0
0
0
0
0
0
0
0
0
0
0
0
0
0
0
0
0
0
0
0
0
0
0
0
0
0
0
0
0
0
0
0
0
0
0
0
0
0
0
0
0
0
0
0
0
0
0
0
0
0
0
0
0
0
0
0
0
0
0
0
0
0
0
0
0
0
0
0
0
0
0
0
0
0
0
0
0
0
0
0
0
0
0
0
0
0
0
0
0
0
0
0
0
0
0
0
0
0
0
0
0
0
0
0
0
0
0
0
0
0
0
0
0
0
0
0
0
0
0
0
0
0
0
0
0
0
0
0
0
0
0
0
0
0
0
0
0
0
0
0
0
0
0
0
0
0
-0.003411222
-0.002625583
-0.001954161
-0.001330946
-0.000689931
3.49E-05
0.000909534
0.002
0.0033723
0.005092441
0.007226433
0.009840283
0.013
0.016702565
0.020668854
0.024550716
0.028
0.030767482
0.032999647
0.03494191
0.036839684
0.038938381
0.041483415
0.044703773
0.048450638
0.052197387
0.055400972
0.057518345
0.058028978
0.056930293
0.054737662
0.05198898
0.049222139
0.046960597
0.045395813
0.044387245
0.043779918
0.043418856
0.043149083
0.042812251
0.042172466
0.040916284
0.038726891
0.035287473
0.030304953
0.024032215
0.017268101
0.010835194
0.005534941
0.001682716
-0.000892179
-0.002381577
-0.00297731
-0.002871028
-0.00225019
-0.001298063
-0.000197731
0.000867721
0.001715208
0.002169013
0.002222905
0.002040132
0.001791313
0.001647067
0.001778012
0.002339869
0.003145692
0.003665872
0.003355901
0.001671271
-0.001932527
-0.008
-0.016610081
-0.025979403
-0.033859024
-0.038
-0.037912588
-0.040143838
-0.053
-0.078662121
-0.094810442
-0.073
0.002679539
0.098
0.178117881
0.255866881
0.356
0.491529085
0.628501384
0.72122299
0.724
0.614895432
0.467
0.35676349
0.279044293
0.208302949
0.119
-0.002097944
-0.119
-0.193585616
-0.228439848
-0.236324157
-0.23
-0.219658788
-0.205211733
-0.184
-0.155658858
-0.129
-0.112300491
-0.102522463
-0.093799311
-0.080477968
-0.061816681
-0.041985011
-0.025253201
-0.013295874
-0.005192032
9.22E-05
0.003573653
0.005879332
0.007246198
0.007894281
0.00804361
0.00791331
0.007701766
0.007586613
0.007744587
0.008352425
0.009586862
0.011624634
0.014630386
0.018490697
0.02281408
0.027196958
0.031235752
0.034539485
0.037006956
0.038826743
0.040200026
0.041327981
0.042411786
0.043644358
0.045028622
0.046377511
0.047495697
0.048187853
0.04825865
0.04752695
0.046137921
0.044563048
0.043287999
0.042798445
0.04356223
0.045637222
0.048671314
0.052294571
0.05613706
0.059828848
0.063
0.065399795
0.067254358
0.068909022
0.070709125
0.073
0.076041844
0.079754291
0.083971835
0.088528972
0.093260195
0.098
0.1026066
0.107033088
0.111256276
0.115252976
0.119
0.12259873
0.126648822
0.131874504
0.139
0.148378514
0.158879153
0.169
0.177866376
0.187112543
0.199
0.214572149
0.23
0.241349544
0.249139084
0.255
0.260301407
0.265363355
0.270243625
0.275
0.279628771
0.283880263
0.28744331
0.290006744
0.291259401
0.290890113
0.288611752
0.284690076
0.279943727
0.275215385
0.271347731
0.269130329
0.268131032
0.26669599
0.263118231
0.255690784
0.242861715
0.226644879
0.212397476
0.20051535
0.186501506
0.170778094
0.158718878
0.151551512
0.146134001
0.139134362
0.127379248
0.111343932
0.095043873
0.080159165
0.065945262
0.053144408
0.044017763
0.039140635
0.037333122
0.03733901
0.037902085
0.03779931
0.036570751
0.034519579
0.031982142
0.029294788
0.026784998
0.02457636
0.02258856
0.020732421
0.018918765
0.017062091
0.015161469
0.013300536
0.011566608
0.010046999
0.008829025
0.008
0.007609817
0.007558673
0
0
0
0
0
0
0
0
0
0
0
0
0
0
0
0
0
0
0
0
0
0
0
0
0
0
0
0
0
0
0
0
0
0
0
0
0
0
0
0
0
0
0
0
0
0
0
0
0
0
0
0
0
0
0
0
0
0
0
0
0
0
0
0
0
0
0
0
0
0
0
0
0
0
0
0
0
0
0
0
0
0
0
0
0
0
0
0
0
0
0
0
0
0
0
0
0
0
0
0
0
0
0
0
0
0
0
0
0
0
0
0
0
0
0
0
0
0
0
0
0
0
0
0
0
0
0
0
0
0
0
0
0
0
0
0
0
0
0
0
0
0
0
0
0
0
0
0
0
0
0
0
0
0
0
0
0
0
0
0
0
0
0
0
0
0
0
0
0
0
0
0
0
0
0
0
0
0
0
0
0
0
0
0
0
0
0
0
0
0
0
0
0
0
0
0
0
0
0
0
0
0
0
0
0
0
0
0
0
0
0
0
0
0
0
0
0
0
0
0
0
0
0
0
0
0
0
0
0
0
0
0
0
0
0
0
0
0
0
0
0
0
0
0
0
0
0
0
0
0
0
0
0
0
0
0
0
0
0
0
0
0
0
0
0
0
0
0
0
0
0
0
0
0
0
0
0
0
0
0
0
0
0
0
0
0
0
0
0
0
0
0
0
0
0
0
0
0
0
0
0
0
0
0
0
0
0
0
0
0
0
0
0
0
0
0
0
0
0
0
0
0
0
0
0
0
0
0
0
0
0
0
0
0
0
0
0
0
0
0
0
0
0
0
0
0
0
0
0
0
0
0
0
0
0
0
0
0
0
0
0
0
0
0
0
0
0
0
0
0
0
0
0
0
0
0
0
0
0
0
0
0
0
0
0
0
0
0
0
0
0
0
0
0
0
0
0
0
0
0
0
0
0
0
0
0
0
0
0
0
0
0
0
0
0
0
0
0
0
0
0
0
0
0
0
0
0
0
0
0
0
0
0
0
0
0
0
0
0
0
0
0
0
0
0
0
0
0
0
0
0
0
0
0
0
0
0
0
0
0
0
0
0
0
0
0
0
0
0
0
0
0
0
0
0
0
0
0
0
0
0
-0.003411222
-0.002625583
-0.001954161
-0.001330946
-0.000689931
3.49E-05
0.000909534
0.002
0.0033723
0.005092441
0.007226433
0.009840283
0.013
0.016702565
0.020668854
0.024550716
0.028
0.030767482
0.032999647
0.03494191
0.036839684
0.038938381
0.041483415
0.044703773
0.048450638
0.052197387
0.055400972
0.057518345
0.058028978
0.056930293
0.054737662
0.05198898
0.049222139
0.046960597
0.045395813
0.044387245
0.043779918
0.043418856
0.043149083
0.042812251
0.042172466
0.040916284
0.038726891
0.035287473
0.030304953
0.024032215
0.017268101
0.010835194
0.005534941
0.001682716
-0.000892179
-0.002381577
-0.00297731
-0.002871028
-0.00225019
-0.001298063
-0.000197731
0.000867721
0.001715208
0.002169013
0.002222905
0.002040132
0.001791313
0.001647067
0.001778012
0.002339869
0.003145692
0.003665872
0.003355901
0.001671271
-0.001932527
-0.008
-0.016610081
-0.025979403
-0.033859024
-0.038
-0.037912588
-0.040143838
-0.053
-0.078662121
-0.094810442
-0.073
0.002679539
0.098
0.178117881
0.255866881
0.356
0.491529085
0.628501384
0.72122299
0.724
0.614895432
0.467
0.35676349
0.279044293
0.208302949
0.119
-0.002097944
-0.119
-0.193585616
-0.228439848
-0.236324157
-0.23
-0.219658788
-0.205211733
-0.184
-0.155658858
-0.129
-0.112300491
-0.102522463
-0.093799311
-0.080477968
-0.061816681
-0.041985011
-0.025253201
-0.013295874
-0.005192032
9.22E-05
0.003573653
0.005879332
0.007246198
0.007894281
0.00804361
0.00791331
0.007701766
0.007586613
0.007744587
0.008352425
0.009586862
0.011624634
0.014630386
0.018490697
0.02281408
0.027196958
0.031235752
0.034539485
0.037006956
0.038826743
0.040200026
0.041327981
0.042411786
0.043644358
0.045028622
0.046377511
0.047495697
0.048187853
0.04825865
0.04752695
0.046137921
0.044563048
0.043287999
0.042798445
0.04356223
0.045637222
0.048671314
0.052294571
0.05613706
0.059828848
0.063
0.065399795
0.067254358
0.068909022
0.070709125
0.073
0.076041844
0.079754291
0.083971835
0.088528972
0.093260195
0.098
0.1026066
0.107033088
0.111256276
0.115252976
0.119
0.12259873
0.126648822
0.131874504
0.139
0.148378514
0.158879153
0.169
0.177866376
0.187112543
0.199
0.214572149
0.23
0.241349544
0.249139084
0.255
0.260301407
0.265363355
0.270243625
0.275
0.279628771
0.283880263
0.28744331
0.290006744
0.291259401
0.290890113
0.288611752
0.284690076
0.279943727
0.275215385
0.271347731
0.269130329
0.268131032
0.26669599
0.263118231
0.255690784
0.242861715
0.226644879
0.212397476
0.20051535
0.186501506
0.170778094
0.158718878
0.151551512
0.146134001
0.139134362
0.127379248
0.111343932
0.095043873
0.080159165
0.065945262
0.053144408
0.044017763
0.039140635
0.037333122
0.03733901
0.037902085
0.03779931
0.036570751
0.034519579
0.031982142
0.029294788
0.026784998
0.02457636
0.02258856
0.020732421
0.018918765
0.017062091
0.015161469
0.013300536
0.011566608
0.010046999
0.008829025
0.008
0.007609817
0.007558673
0
0
0
0
0
0
0
0
0
0
0
0
0
0
0
0
0
0
0
0
0
0
0
0
0
0
0
0
0
0
0
0
0
0
0
0
0
0
0
0
0
0
0
0
0
0
0
0
0
0
0
0
0
0
0
0
0
0
0
0
0
0
0
0
0
0
0
0
0
0
0
0
0
0
0
0
0
0
0
0
0
0
0
0
0
0
0
0
0
0
0
0
0
0
0
0
0
0
0
0
0
0
0
0
0
0
0
0
0
0
0
0
0
0
0
0
0
0
0
0
0
0
0
0
0
0
0
0
0
0
0
0
0
0
0
0
0
0
0
0
0
0
0
0
0
0
0
0
0
0
0
0
0
0
0
0
0
0
0
0
0
0
0
0
0
0
0
0
0
0
0
0
0
0
0
0
0
0
0
0
0
0
0
0
0
0
0
0
0
0
0
0
0
0
0
0
0
0
0
0
0
0
0
0
0
0
0
0
0
0
0
0
0
0
0
0
0
0
0
0
0
0
0
0
0
0
0
0
0
0
0
0
0
0
0
0
0
0
0
0
0
0
0
0
0
0
0
0
0
0
0
0
0
0
0
0
0
0
0
0
0
0
0
0
0
0
0
0
0
0
0
0
0
0
0
0
0
0
0
0
0
0
0
0
0
0
0
0
0
0
0
0
0
0
0
0
0
0
0
0
0
0
0
0
0
0
0
0
0
0
0
0
0
0
0
0
0
0
0
0
0
0
0
0
0
0
0
0
0
0
0
0
0
0
0
0
0
0
0
0
0
0
0
0
0
0
0
0
0
0
0
0
0
0
0
0
0
0
0
0
0
0
0
0
0
0
0
0
0
0
0
0
0
0
0
0
0
0
0
0
0
0
0
0
0
0
0
0
0
0
0
0
0
0
0
0
0
0
0
0
0
0
0
0
0
0
0
0
0
0
0
0
0
0
0
0
0
0
0
0
0
0
0
0
0
0
0
0
0
0
0
0
0
0
0
0
0
0
0
0
0
0
0
0
0
0
0
0
0
0
0
0
0
0
0
0
0
0
0
0
0
0
0
0
0
0
0
0
0
0
0
0
0
0
0
0
0
0
0
0
0
-0.003411222
-0.002625583
-0.001954161
-0.001330946
-0.000689931
3.49E-05
0.000909534
0.002
0.0033723
0.005092441
0.007226433
0.009840283
0.013
0.016702565
0.020668854
0.024550716
0.028
0.030767482
0.032999647
0.03494191
0.036839684
0.038938381
0.041483415
0.044703773
0.048450638
0.052197387
0.055400972
0.057518345
0.058028978
0.056930293
0.054737662
0.05198898
0.049222139
0.046960597
0.045395813
0.044387245
0.043779918
0.043418856
0.043149083
0.042812251
0.042172466
0.040916284
0.038726891
0.035287473
0.030304953
0.024032215
0.017268101
0.010835194
0.005534941
0.001682716
-0.000892179
-0.002381577
-0.00297731
-0.002871028
-0.00225019
-0.001298063
-0.000197731
0.000867721
0.001715208
0.002169013
0.002222905
0.002040132
0.001791313
0.001647067
0.001778012
0.002339869
0.003145692
0.003665872
0.003355901
0.001671271
-0.001932527
-0.008
-0.016610081
-0.025979403
-0.033859024
-0.038
-0.037912588
-0.040143838
-0.053
-0.078662121
-0.094810442
-0.073
0.002679539
0.098
0.178117881
0.255866881
0.356
0.491529085
0.628501384
0.72122299
0.724
0.614895432
0.467
0.35676349
0.279044293
0.208302949
0.119
-0.002097944
-0.119
-0.193585616
-0.228439848
-0.236324157
-0.23
-0.219658788
-0.205211733
-0.184
-0.155658858
-0.129
-0.112300491
-0.102522463
-0.093799311
-0.080477968
-0.061816681
-0.041985011
-0.025253201
-0.013295874
-0.005192032
9.22E-05
0.003573653
0.005879332
0.007246198
0.007894281
0.00804361
0.00791331
0.007701766
0.007586613
0.007744587
0.008352425
0.009586862
0.011624634
0.014630386
0.018490697
0.02281408
0.027196958
0.031235752
0.034539485
0.037006956
0.038826743
0.040200026
0.041327981
0.042411786
0.043644358
0.045028622
0.046377511
0.047495697
0.048187853
0.04825865
0.04752695
0.046137921
0.044563048
0.043287999
0.042798445
0.04356223
0.045637222
0.048671314
0.052294571
0.05613706
0.059828848
0.063
0.065399795
0.067254358
0.068909022
0.070709125
0.073
0.076041844
0.079754291
0.083971835
0.088528972
0.093260195
0.098
0.1026066
0.107033088
0.111256276
0.115252976
0.119
0.12259873
0.126648822
0.131874504
0.139
0.148378514
0.158879153
0.169
0.177866376
0.187112543
0.199
0.214572149
0.23
0.241349544
0.249139084
0.255
0.260301407
0.265363355
0.270243625
0.275
0.279628771
0.283880263
0.28744331
0.290006744
0.291259401
0.290890113
0.288611752
0.284690076
0.279943727
0.275215385
0.271347731
0.269130329
0.268131032
0.26669599
0.263118231
0.255690784
0.242861715
0.226644879
0.212397476
0.20051535
0.186501506
0.170778094
0.158718878
0.151551512
0.146134001
0.139134362
0.127379248
0.111343932
0.095043873
0.080159165
0.065945262
0.053144408
0.044017763
0.039140635
0.037333122
0.03733901
0.037902085
0.03779931
0.036570751
0.034519579
0.031982142
0.029294788
0.026784998
0.02457636
0.02258856
0.020732421
0.018918765
0.017062091
0.015161469
0.013300536
0.011566608
0.010046999
0.008829025
0.008
0.007609817
0.007558673
0
0
0
0
0
0
0
0
0
0
0
0
0
0
0
0
0
0
0
0
0
0
0
0
0
0
0
0
0
0
0
0
0
0
0
0
0
0
0
0
0
0
0
0
0
0
0
0
0
0
0
0
0
0
0
0
0
0
0
0
0
0
0
0
0
0
0
0
0
0
0
0
0
0
0
0
0
0
0
0
0
0
0
0
0
0
0
0
0
0
0
0
0
0
0
0
0
0
0
0
0
0
0
0
0
0
0
0
0
0
0
0
0
0
0
0
0
0
0
0
0
0
0
0
0
0
0
0
0
0
0
0
0
0
0
0
0
0
0
0
0
0
0
0
0
0
0
0
0
0
0
0
0
0
0
0
0
0
0
0
0
0
0
0
0
0
0
0
0
0
0
0
0
0
0
0
0
0
0
0
0
0
0
0
0
0
0
0
0
0
0
0
0
0
0
0
0
0
0
0
0
0
0
0
0
0
0
0
0
0
0
0
0
0
0
0
0
0
0
0
0
0
0
0
0
0
0
0
0
0
0
0
0
0
0
0
0
0
0
0
0
0
0
0
0
0
0
0
0
0
0
0
0
0
0
0
0
0
0
0
0
0
0
0
0
0
0
0
0
0
0
0
0
0
0
0
0
0
0
0
0
0
0
0
0
0
0
0
0
0
0
0
0
0
0
0
0
0
0
0
0
0
0
0
0
0
0
0
0
0
0
0
0
0
0
0
0
0
0
0
0
0
0
0
0
0
0
0
0
0
0
0
0
0
0
0
0
0
0
0
0
0
0
0
0
0
0
0
0
0
0
0
0
0
0
0
0
0
0
0
0
0
0
0
0
0
0
0
0
0
0
0
0
0
0
0
0
0
0
0
0
0
0
0
0
0
0
0
0
0
0
0
0
0
0
0
0
0
0
0
0
0
0
0
0
0
0
0
0
0
0
0
0
0
0
0
0
0
0
0
0
0
0
0
0
0
0
0
0
0
0
0
0
0
0
0
0
0
0
0
0
0
0
0
0
0
0
0
0
0
0
0
0
0
0
0
0
0
0
0
0
0
0
0
0
0
0
0
0
0
0
0
0
0
0
0
0
0
0
0
0
0
-0.003411222
-0.002625583
-0.001954161
-0.001330946
-0.000689931
3.49E-05
0.000909534
0.002
0.0033723
0.005092441
0.007226433
0.009840283
0.013
0.016702565
0.020668854
0.024550716
0.028
0.030767482
0.032999647
0.03494191
0.036839684
0.038938381
0.041483415
0.044703773
0.048450638
0.052197387
0.055400972
0.057518345
0.058028978
0.056930293
0.054737662
0.05198898
0.049222139
0.046960597
0.045395813
0.044387245
0.043779918
0.043418856
0.043149083
0.042812251
0.042172466
0.040916284
0.038726891
0.035287473
0.030304953
0.024032215
0.017268101
0.010835194
0.005534941
0.001682716
-0.000892179
-0.002381577
-0.00297731
-0.002871028
-0.00225019
-0.001298063
-0.000197731
0.000867721
0.001715208
0.002169013
0.002222905
0.002040132
0.001791313
0.001647067
0.001778012
0.002339869
0.003145692
0.003665872
0.003355901
0.001671271
-0.001932527
-0.008
-0.016610081
-0.025979403
-0.033859024
-0.038
-0.037912588
-0.040143838
-0.053
-0.078662121
-0.094810442
-0.073
0.002679539
0.098
0.178117881
0.255866881
0.356
0.491529085
0.628501384
0.72122299
0.724
0.614895432
0.467
0.35676349
0.279044293
0.208302949
0.119
-0.002097944
-0.119
-0.193585616
-0.228439848
-0.236324157
-0.23
-0.219658788
-0.205211733
-0.184
-0.155658858
-0.129
-0.112300491
-0.102522463
-0.093799311
-0.080477968
-0.061816681
-0.041985011
-0.025253201
-0.013295874
-0.005192032
9.22E-05
0.003573653
0.005879332
0.007246198
0.007894281
0.00804361
0.00791331
0.007701766
0.007586613
0.007744587
0.008352425
0.009586862
0.011624634
0.014630386
0.018490697
0.02281408
0.027196958
0.031235752
0.034539485
0.037006956
0.038826743
0.040200026
0.041327981
0.042411786
0.043644358
0.045028622
0.046377511
0.047495697
0.048187853
0.04825865
0.04752695
0.046137921
0.044563048
0.043287999
0.042798445
0.04356223
0.045637222
0.048671314
0.052294571
0.05613706
0.059828848
0.063
0.065399795
0.067254358
0.068909022
0.070709125
0.073
0.076041844
0.079754291
0.083971835
0.088528972
0.093260195
0.098
0.1026066
0.107033088
0.111256276
0.115252976
0.119
0.12259873
0.126648822
0.131874504
0.139
0.148378514
0.158879153
0.169
0.177866376
0.187112543
0.199
0.214572149
0.23
0.241349544
0.249139084
0.255
0.260301407
0.265363355
0.270243625
0.275
0.279628771
0.283880263
0.28744331
0.290006744
0.291259401
0.290890113
0.288611752
0.284690076
0.279943727
0.275215385
0.271347731
0.269130329
0.268131032
0.26669599
0.263118231
0.255690784
0.242861715
0.226644879
0.212397476
0.20051535
0.186501506
0.170778094
0.158718878
0.151551512
0.146134001
0.139134362
0.127379248
0.111343932
0.095043873
0.080159165
0.065945262
0.053144408
0.044017763
0.039140635
0.037333122
0.03733901
0.037902085
0.03779931
0.036570751
0.034519579
0.031982142
0.029294788
0.026784998
0.02457636
0.02258856
0.020732421
0.018918765
0.017062091
0.015161469
0.013300536
0.011566608
0.010046999
0.008829025
0.008
0.007609817
0.007558673
0
0
0
0
0
0
0
0
0
0
0
0
0
0
0
0
0
0
0
0
0
0
0
0
0
0
0
0
0
0
0
0
0
0
0
0
0
0
0
0
0
0
0
0
0
0
0
0
0
0
0
0
0
0
0
0
0
0
0
0
0
0
0
0
0
0
0
0
0
0
0
0
0
0
0
0
0
0
0
0
0
0
0
0
0
0
0
0
0
0
0
0
0
0
0
0
0
0
0
0
0
0
0
0
0
0
0
0
0
0
0
0
0
0
0
0
0
0
0
0
0
0
0
0
0
0
0
0
0
0
0
0
0
0
0
0
0
0
0
0
0
0
0
0
0
0
0
0
0
0
0
0
0
0
0
0
0
0
0
0
0
0
0
0
0
0
0
0
0
0
0
0
0
0
0
0
0
0
0
0
0
0
0
0
0
0
0
0
0
0
0
0
0
0
0
0
0
0
0
0
0
0
0
0
0
0
0
0
0
0
0
0
0
0
0
0
0
0
0
0
0
0
0
0
0
0
0
0
0
0
0
0
0
0
0
0
0
0
0
0
0
0
0
0
0
0
0
0
0
0
0
0
0
0
0
0
0
0
0
0
0
0
0
0
0
0
0
0
0
0
0
0
0
0
0
0
0
0
0
0
0
0
0
0
0
0
0
0
0
0
0
0
0
0
0
0
0
0
0
0
0
0
0
0
0
0
0
0
0
0
0
0
0
0
0
0
0
0
0
0
0
0
0
0
0
0
0
0
0
0
0
0
0
0
0
0
0
0
0
0
0
0
0
0
0
0
0
0
0
0
0
0
0
0
0
0
0
0
0
0
0
0
0
0
0
0
0
0
0
0
0
0
0
0
0
0
0
0
0
0
0
0
0
0
0
0
0
0
0
0
0
0
0
0
0
0
0
0
0
0
0
0
0
0
0
0
0
0
0
0
0
0
0
0
0
0
0
0
0
0
0
0
0
0
0
0
0
0
0
0
0
0
0
0
0
0
0
0
0
0
0
0
0
0
0
0
0
0
0
0
0
0
0
0
0
0
0
0
0
0
0
0
0
0
0
0
0
0
0
0
0
0
0
0
0
0
0
0
0
0
0
0
-0.003411222
-0.002625583
-0.001954161
-0.001330946
-0.000689931
3.49E-05
0.000909534
0.002
0.0033723
0.005092441
0.007226433
0.009840283
0.013
0.016702565
0.020668854
0.024550716
0.028
0.030767482
0.032999647
0.03494191
0.036839684
0.038938381
0.041483415
0.044703773
0.048450638
0.052197387
0.055400972
0.057518345
0.058028978
0.056930293
0.054737662
0.05198898
0.049222139
0.046960597
0.045395813
0.044387245
0.043779918
0.043418856
0.043149083
0.042812251
0.042172466
0.040916284
0.038726891
0.035287473
0.030304953
0.024032215
0.017268101
0.010835194
0.005534941
0.001682716
-0.000892179
-0.002381577
-0.00297731
-0.002871028
-0.00225019
-0.001298063
-0.000197731
0.000867721
0.001715208
0.002169013
0.002222905
0.002040132
0.001791313
0.001647067
0.001778012
0.002339869
0.003145692
0.003665872
0.003355901
0.001671271
-0.001932527
-0.008
-0.016610081
-0.025979403
-0.033859024
-0.038
-0.037912588
-0.040143838
-0.053
-0.078662121
-0.094810442
-0.073
0.002679539
0.098
0.178117881
0.255866881
0.356
0.491529085
0.628501384
0.72122299
0.724
0.614895432
0.467
0.35676349
0.279044293
0.208302949
0.119
-0.002097944
-0.119
-0.193585616
-0.228439848
-0.236324157
-0.23
-0.219658788
-0.205211733
-0.184
-0.155658858
-0.129
-0.112300491
-0.102522463
-0.093799311
-0.080477968
-0.061816681
-0.041985011
-0.025253201
-0.013295874
-0.005192032
9.22E-05
0.003573653
0.005879332
0.007246198
0.007894281
0.00804361
0.00791331
0.007701766
0.007586613
0.007744587
0.008352425
0.009586862
0.011624634
0.014630386
0.018490697
0.02281408
0.027196958
0.031235752
0.034539485
0.037006956
0.038826743
0.040200026
0.041327981
0.042411786
0.043644358
0.045028622
0.046377511
0.047495697
0.048187853
0.04825865
0.04752695
0.046137921
0.044563048
0.043287999
0.042798445
0.04356223
0.045637222
0.048671314
0.052294571
0.05613706
0.059828848
0.063
0.065399795
0.067254358
0.068909022
0.070709125
0.073
0.076041844
0.079754291
0.083971835
0.088528972
0.093260195
0.098
0.1026066
0.107033088
0.111256276
0.115252976
0.119
0.12259873
0.126648822
0.131874504
0.139
0.148378514
0.158879153
0.169
0.177866376
0.187112543
0.199
0.214572149
0.23
0.241349544
0.249139084
0.255
0.260301407
0.265363355
0.270243625
0.275
0.279628771
0.283880263
0.28744331
0.290006744
0.291259401
0.290890113
0.288611752
0.284690076
0.279943727
0.275215385
0.271347731
0.269130329
0.268131032
0.26669599
0.263118231
0.255690784
0.242861715
0.226644879
0.212397476
0.20051535
0.186501506
0.170778094
0.158718878
0.151551512
0.146134001
0.139134362
0.127379248
0.111343932
0.095043873
0.080159165
0.065945262
0.053144408
0.044017763
0.039140635
0.037333122
0.03733901
0.037902085
0.03779931
0.036570751
0.034519579
0.031982142
0.029294788
0.026784998
0.02457636
0.02258856
0.020732421
0.018918765
0.017062091
0.015161469
0.013300536
0.011566608
0.010046999
0.008829025
0.008
0.007609817
0.007558673
0
0
0
0
0
0
0
0
0
0
0
0
0
0
0
0
0
0
0
0
0
0
0
0
0
0
0
0
0
0
0
0
0
0
0
0
0
0
0
0
0
0
0
0
0
0
0
0
0
0
0
0
0
0
0
0
0
0
0
0
0
0
0
0
0
0
0
0
0
0
0
0
0
0
0
0
0
0
0
0
0
0
0
0
0
0
0
0
0
0
0
0
0
0
0
0
0
0
0
0
0
0
0
0
0
0
0
0
0
0
0
0
0
0
0
0
0
0
0
0
0
0
0
0
0
0
0
0
0
0
0
0
0
0
0
0
0
0
0
0
0
0
0
0
0
0
0
0
0
0
0
0
0
0
0
0
0
0
0
0
0
0
0
0
0
0
0
0
0
0
0
0
0
0
0
0
0
0
0
0
0
0
0
0
0
0
0
0
0
0
0
0
0
0
0
0
0
0
0
0
0
0
0
0
0
0
0
0
0
0
0
0
0
0
0
0
0
0
0
0
0
0
0
0
0
0
0
0
0
0
0
0
0
0
0
0
0
0
0
0
0
0
0
0
0
0
0
0
0
0
0
0
0
0
0
0
0
0
0
0
0
0
0
0
0
0
0
0
0
0
0
0
0
0
0
0
0
0
0
0
0
0
0
0
0
0
0
0
0
0
0
0
0
0
0
0
0
0
0
0
0
0
0
0
0
0
0
0
0
0
0
0
0
0
0
0
0
0
0
0
0
0
0
0
0
0
0
0
0
0
0
0
0
0
0
0
0
0
0
0
0
0
0
0
0
0
0
0
0
0
0
0
0
0
0
0
0
0
0
0
0
0
0
0
0
0
0
0
0
0
0
0
0
0
0
0
0
0
0
0
0
0
0
0
0
0
0
0
0
0
0
0
0
0
0
0
0
0
0
0
0
0
0
0
0
0
0
0
0
0
0
0
0
0
0
0
0
0
0
0
0
0
0
0
0
0
0
0
0
0
0
0
0
0
0
0
0
0
0
0
0
0
0
0
0
0
0
0
0
0
0
0
0
0
0
0
0
0
0
0
0
0
0
0
0
0
0
0
0
0
0
0
0
0
0
0
0
0
0
0
0
0
0
-0.003411222
-0.002625583
-0.001954161
-0.001330946
-0.000689931
3.49E-05
0.000909534
0.002
0.0033723
0.005092441
0.007226433
0.009840283
0.013
0.016702565
0.020668854
0.024550716
0.028
0.030767482
0.032999647
0.03494191
0.036839684
0.038938381
0.041483415
0.044703773
0.048450638
0.052197387
0.055400972
0.057518345
0.058028978
0.056930293
0.054737662
0.05198898
0.049222139
0.046960597
0.045395813
0.044387245
0.043779918
0.043418856
0.043149083
0.042812251
0.042172466
0.040916284
0.038726891
0.035287473
0.030304953
0.024032215
0.017268101
0.010835194
0.005534941
0.001682716
-0.000892179
-0.002381577
-0.00297731
-0.002871028
-0.00225019
-0.001298063
-0.000197731
0.000867721
0.001715208
0.002169013
0.002222905
0.002040132
0.001791313
0.001647067
0.001778012
0.002339869
0.003145692
0.003665872
0.003355901
0.001671271
-0.001932527
-0.008
-0.016610081
-0.025979403
-0.033859024
-0.038
-0.037912588
-0.040143838
-0.053
-0.078662121
-0.094810442
-0.073
0.002679539
0.098
0.178117881
0.255866881
0.356
0.491529085
0.628501384
0.72122299
0.724
0.614895432
0.467
0.35676349
0.279044293
0.208302949
0.119
-0.002097944
-0.119
-0.193585616
-0.228439848
-0.236324157
-0.23
-0.219658788
-0.205211733
-0.184
-0.155658858
-0.129
-0.112300491
-0.102522463
-0.093799311
-0.080477968
-0.061816681
-0.041985011
-0.025253201
-0.013295874
-0.005192032
9.22E-05
0.003573653
0.005879332
0.007246198
0.007894281
0.00804361
0.00791331
0.007701766
0.007586613
0.007744587
0.008352425
0.009586862
0.011624634
0.014630386
0.018490697
0.02281408
0.027196958
0.031235752
0.034539485
0.037006956
0.038826743
0.040200026
0.041327981
0.042411786
0.043644358
0.045028622
0.046377511
0.047495697
0.048187853
0.04825865
0.04752695
0.046137921
0.044563048
0.043287999
0.042798445
0.04356223
0.045637222
0.048671314
0.052294571
0.05613706
0.059828848
0.063
0.065399795
0.067254358
0.068909022
0.070709125
0.073
0.076041844
0.079754291
0.083971835
0.088528972
0.093260195
0.098
0.1026066
0.107033088
0.111256276
0.115252976
0.119
0.12259873
0.126648822
0.131874504
0.139
0.148378514
0.158879153
0.169
0.177866376
0.187112543
0.199
0.214572149
0.23
0.241349544
0.249139084
0.255
0.260301407
0.265363355
0.270243625
0.275
0.279628771
0.283880263
0.28744331
0.290006744
0.291259401
0.290890113
0.288611752
0.284690076
0.279943727
0.275215385
0.271347731
0.269130329
0.268131032
0.26669599
0.263118231
0.255690784
0.242861715
0.226644879
0.212397476
0.20051535
0.186501506
0.170778094
0.158718878
0.151551512
0.146134001
0.139134362
0.127379248
0.111343932
0.095043873
0.080159165
0.065945262
0.053144408
0.044017763
0.039140635
0.037333122
0.03733901
0.037902085
0.03779931
0.036570751
0.034519579
0.031982142
0.029294788
0.026784998
0.02457636
0.02258856
0.020732421
0.018918765
0.017062091
0.015161469
0.013300536
0.011566608
0.010046999
0.008829025
0.008
0.007609817
0.007558673
0
0
0
0
0
0
0
0
0
0
0
0
0
0
0
0
0
0
0
0
0
0
0
0
0
0
0
0
0
0
0
0
0
0
0
0
0
0
0
0
0
0
0
0
0
0
0
0
0
0
0
0
0
0
0
0
0
0
0
0
0
0
0
0
0
0
0
0
0
0
0
0
0
0
0
0
0
0
0
0
0
0
0
0
0
0
0
0
0
0
0
0
0
0
0
0
0
0
0
0
0
0
0
0
0
0
0
0
0
0
0
0
0
0
0
0
0
0
0
0
0
0
0
0
0
0
0
0
0
0
0
0
0
0
0
0
0
0
0
0
0
0
0
0
0
0
0
0
0
0
0
0
0
0
0
0
0
0
0
0
0
0
0
0
0
0
0
0
0
0
0
0
0
0
0
0
0
0
0
0
0
0
0
0
0
0
0
0
0
0
0
0
0
0
0
0
0
0
0
0
0
0
0
0
0
0
0
0
0
0
0
0
0
0
0
0
0
0
0
0
0
0
0
0
0
0
0
0
0
0
0
0
0
0
0
0
0
0
0
0
0
0
0
0
0
0
0
0
0
0
0
0
0
0
0
0
0
0
0
0
0
0
0
0
0
0
0
0
0
0
0
0
0
0
0
0
0
0
0
0
0
0
0
0
0
0
0
0
0
0
0
0
0
0
0
0
0
0
0
0
0
0
0
0
0
0
0
0
0
0
0
0
0
0
0
0
0
0
0
0
0
0
0
0
0
0
0
0
0
0
0
0
0
0
0
0
0
0
0
0
0
0
0
0
0
0
0
0
0
0
0
0
0
0
0
0
0
0
0
0
0
0
0
0
0
0
0
0
0
0
0
0
0
0
0
0
0
0
0
0
0
0
0
0
0
0
0
0
0
0
0
0
0
0
0
0
0
0
0
0
0
0
0
0
0
0
0
0
0
0
0
0
0
0
0
0
0
0
0
0
0
0
0
0
0
0
0
0
0
0
0
0
0
0
0
0
0
0
0
0
0
0
0
0
0
0
0
0
0
0
0
0
0
0
0
0
0
0
0
0
0
0
0
0
0
0
0
0
0
0
0
0
0
0
0
0
0
0
0
0
0
0
0
0
-0.003411222
-0.002625583
-0.001954161
-0.001330946
-0.000689931
3.49E-05
0.000909534
0.002
0.0033723
0.005092441
0.007226433
0.009840283
0.013
0.016702565
0.020668854
0.024550716
0.028
0.030767482
0.032999647
0.03494191
0.036839684
0.038938381
0.041483415
0.044703773
0.048450638
0.052197387
0.055400972
0.057518345
0.058028978
0.056930293
0.054737662
0.05198898
0.049222139
0.046960597
0.045395813
0.044387245
0.043779918
0.043418856
0.043149083
0.042812251
0.042172466
0.040916284
0.038726891
0.035287473
0.030304953
0.024032215
0.017268101
0.010835194
0.005534941
0.001682716
-0.000892179
-0.002381577
-0.00297731
-0.002871028
-0.00225019
-0.001298063
-0.000197731
0.000867721
0.001715208
0.002169013
0.002222905
0.002040132
0.001791313
0.001647067
0.001778012
0.002339869
0.003145692
0.003665872
0.003355901
0.001671271
-0.001932527
-0.008
-0.016610081
-0.025979403
-0.033859024
-0.038
-0.037912588
-0.040143838
-0.053
-0.078662121
-0.094810442
-0.073
0.002679539
0.098
0.178117881
0.255866881
0.356
0.491529085
0.628501384
0.72122299
0.724
0.614895432
0.467
0.35676349
0.279044293
0.208302949
0.119
-0.002097944
-0.119
-0.193585616
-0.228439848
-0.236324157
-0.23
-0.219658788
-0.205211733
-0.184
-0.155658858
-0.129
-0.112300491
-0.102522463
-0.093799311
-0.080477968
-0.061816681
-0.041985011
-0.025253201
-0.013295874
-0.005192032
9.22E-05
0.003573653
0.005879332
0.007246198
0.007894281
0.00804361
0.00791331
0.007701766
0.007586613
0.007744587
0.008352425
0.009586862
0.011624634
0.014630386
0.018490697
0.02281408
0.027196958
0.031235752
0.034539485
0.037006956
0.038826743
0.040200026
0.041327981
0.042411786
0.043644358
0.045028622
0.046377511
0.047495697
0.048187853
0.04825865
0.04752695
0.046137921
0.044563048
0.043287999
0.042798445
0.04356223
0.045637222
0.048671314
0.052294571
0.05613706
0.059828848
0.063
0.065399795
0.067254358
0.068909022
0.070709125
0.073
0.076041844
0.079754291
0.083971835
0.088528972
0.093260195
0.098
0.1026066
0.107033088
0.111256276
0.115252976
0.119
0.12259873
0.126648822
0.131874504
0.139
0.148378514
0.158879153
0.169
0.177866376
0.187112543
0.199
0.214572149
0.23
0.241349544
0.249139084
0.255
0.260301407
0.265363355
0.270243625
0.275
0.279628771
0.283880263
0.28744331
0.290006744
0.291259401
0.290890113
0.288611752
0.284690076
0.279943727
0.275215385
0.271347731
0.269130329
0.268131032
0.26669599
0.263118231
0.255690784
0.242861715
0.226644879
0.212397476
0.20051535
0.186501506
0.170778094
0.158718878
0.151551512
0.146134001
0.139134362
0.127379248
0.111343932
0.095043873
0.080159165
0.065945262
0.053144408
0.044017763
0.039140635
0.037333122
0.03733901
0.037902085
0.03779931
0.036570751
0.034519579
0.031982142
0.029294788
0.026784998
0.02457636
0.02258856
0.020732421
0.018918765
0.017062091
0.015161469
0.013300536
0.011566608
0.010046999
0.008829025
0.008
0.007609817
0.007558673
0
0
0
0
0
0
0
0
0
0
0
0
0
0
0
0
0
0
0
0
0
0
0
0
0
0
0
0
0
0
0
0
0
0
0
0
0
0
0
0
0
0
0
0
0
0
0
0
0
0
0
0
0
0
0
0
0
0
0
0
0
0
0
0
0
0
0
0
0
0
0
0
0
0
0
0
0
0
0
0
0
0
0
0
0
0
0
0
0
0
0
0
0
0
0
0
0
0
0
0
0
0
0
0
0
0
0
0
0
0
0
0
0
0
0
0
0
0
0
0
0
0
0
0
0
0
0
0
0
0
0
0
0
0
0
0
0
0
0
0
0
0
0
0
0
0
0
0
0
0
0
0
0
0
0
0
0
0
0
0
0
0
0
0
0
0
0
0
0
0
0
0
0
0
0
0
0
0
0
0
0
0
0
0
0
0
0
0
0
0
0
0
0
0
0
0
0
0
0
0
0
0
0
0
0
0
0
0
0
0
0
0
0
0
0
0
0
0
0
0
0
0
0
0
0
0
0
0
0
0
0
0
0
0
0
0
0
0
0
0
0
0
0
0
0
0
0
0
0
0
0
0
0
0
0
0
0
0
0
0
0
0
0
0
0
0
0
0
0
0
0
0
0
0
0
0
0
0
0
0
0
0
0
0
0
0
0
0
0
0
0
0
0
0
0
0
0
0
0
0
0
0
0
0
0
0
0
0
0
0
0
0
0
0
0
0
0
0
0
0
0
0
0
0
0
0
0
0
0
0
0
0
0
0
0
0
0
0
0
0
0
0
0
0
0
0
0
0
0
0
0
0
0
0
0
0
0
0
0
0
0
0
0
0
0
0
0
0
0
0
0
0
0
0
0
0
0
0
0
0
0
0
0
0
0
0
0
0
0
0
0
0
0
0
0
0
0
0
0
0
0
0
0
0
0
0
0
0
0
0
0
0
0
0
0
0
0
0
0
0
0
0
0
0
0
0
0
0
0
0
0
0
0
0
0
0
0
0
0
0
0
0
0
0
0
0
0
0
0
0
0
0
0
0
0
0
0
0
0
0
0
0
0
0
0
0
0
0
0
0
0
0
0
0
0
0
0
0
0
0
0
0
0
0
0
-0.003411222
-0.002625583
-0.001954161
-0.001330946
-0.000689931
3.49E-05
0.000909534
0.002
0.0033723
0.005092441
0.007226433
0.009840283
0.013
0.016702565
0.020668854
0.024550716
0.028
0.030767482
0.032999647
0.03494191
0.036839684
0.038938381
0.041483415
0.044703773
0.048450638
0.052197387
0.055400972
0.057518345
0.058028978
0.056930293
0.054737662
0.05198898
0.049222139
0.046960597
0.045395813
0.044387245
0.043779918
0.043418856
0.043149083
0.042812251
0.042172466
0.040916284
0.038726891
0.035287473
0.030304953
0.024032215
0.017268101
0.010835194
0.005534941
0.001682716
-0.000892179
-0.002381577
-0.00297731
-0.002871028
-0.00225019
-0.001298063
-0.000197731
0.000867721
0.001715208
0.002169013
0.002222905
0.002040132
0.001791313
0.001647067
0.001778012
0.002339869
0.003145692
0.003665872
0.003355901
0.001671271
-0.001932527
-0.008
-0.016610081
-0.025979403
-0.033859024
-0.038
-0.037912588
-0.040143838
-0.053
-0.078662121
-0.094810442
-0.073
0.002679539
0.098
0.178117881
0.255866881
0.356
0.491529085
0.628501384
0.72122299
0.724
0.614895432
0.467
0.35676349
0.279044293
0.208302949
0.119
-0.002097944
-0.119
-0.193585616
-0.228439848
-0.236324157
-0.23
-0.219658788
-0.205211733
-0.184
-0.155658858
-0.129
-0.112300491
-0.102522463
-0.093799311
-0.080477968
-0.061816681
-0.041985011
-0.025253201
-0.013295874
-0.005192032
9.22E-05
0.003573653
0.005879332
0.007246198
0.007894281
0.00804361
0.00791331
0.007701766
0.007586613
0.007744587
0.008352425
0.009586862
0.011624634
0.014630386
0.018490697
0.02281408
0.027196958
0.031235752
0.034539485
0.037006956
0.038826743
0.040200026
0.041327981
0.042411786
0.043644358
0.045028622
0.046377511
0.047495697
0.048187853
0.04825865
0.04752695
0.046137921
0.044563048
0.043287999
0.042798445
0.04356223
0.045637222
0.048671314
0.052294571
0.05613706
0.059828848
0.063
0.065399795
0.067254358
0.068909022
0.070709125
0.073
0.076041844
0.079754291
0.083971835
0.088528972
0.093260195
0.098
0.1026066
0.107033088
0.111256276
0.115252976
0.119
0.12259873
0.126648822
0.131874504
0.139
0.148378514
0.158879153
0.169
0.177866376
0.187112543
0.199
0.214572149
0.23
0.241349544
0.249139084
0.255
0.260301407
0.265363355
0.270243625
0.275
0.279628771
0.283880263
0.28744331
0.290006744
0.291259401
0.290890113
0.288611752
0.284690076
0.279943727
0.275215385
0.271347731
0.269130329
0.268131032
0.26669599
0.263118231
0.255690784
0.242861715
0.226644879
0.212397476
0.20051535
0.186501506
0.170778094
0.158718878
0.151551512
0.146134001
0.139134362
0.127379248
0.111343932
0.095043873
0.080159165
0.065945262
0.053144408
0.044017763
0.039140635
0.037333122
0.03733901
0.037902085
0.03779931
0.036570751
0.034519579
0.031982142
0.029294788
0.026784998
0.02457636
0.02258856
0.020732421
0.018918765
0.017062091
0.015161469
0.013300536
0.011566608
0.010046999
0.008829025
0.008
0.007609817
0.007558673
0
0
0
0
0
0
0
0
0
0
0
0
0
0
0
0
0
0
0
0
0
0
0
0
0
0
0
0
0
0
0
0
0
0
0
0
0
0
0
0
0
0
0
0
0
0
0
0
0
0
0
0
0
0
0
0
0
0
0
0
0
0
0
0
0
0
0
0
0
0
0
0
0
0
0
0
0
0
0
0
0
0
0
0
0
0
0
0
0
0
0
0
0
0
0
0
0
0
0
0
0
0
0
0
0
0
0
0
0
0
0
0
0
0
0
0
0
0
0
0
0
0
0
0
0
0
0
0
0
0
0
0
0
0
0
0
0
0
0
0
0
0
0
0
0
0
0
0
0
0
0
0
0
0
0
0
0
0
0
0
0
0
0
0
0
0
0
0
0
0
0
0
0
0
0
0
0
0
0
0
0
0
0
0
0
0
0
0
0
0
0
0
0
0
0
0
0
0
0
0
0
0
0
0
0
0
0
0
0
0
0
0
0
0
0
0
0
0
0
0
0
0
0
0
0
0
0
0
0
0
0
0
0
0
0
0
0
0
0
0
0
0
0
0
0
0
0
0
0
0
0
0
0
0
0
0
0
0
0
0
0
0
0
0
0
0
0
0
0
0
0
0
0
0
0
0
0
0
0
0
0
0
0
0
0
0
0
0
0
0
0
0
0
0
0
0
0
0
0
0
0
0
0
0
0
0
0
0
0
0
0
0
0
0
0
0
0
0
0
0
0
0
0
0
0
0
0
0
0
0
0
0
0
0
0
0
0
0
0
0
0
0
0
0
0
0
0
0
0
0
0
0
0
0
0
0
0
0
0
0
0
0
0
0
0
0
0
0
0
0
0
0
0
0
0
0
0
0
0
0
0
0
0
0
0
0
0
0
0
0
0
0
0
0
0
0
0
0
0
0
0
0
0
0
0
0
0
0
0
0
0
0
0
0
0
0
0
0
0
0
0
0
0
0
0
0
0
0
0
0
0
0
0
0
0
0
0
0
0
0
0
0
0
0
0
0
0
0
0
0
0
0
0
0
0
0
0
0
0
0
0
0
0
0
0
0
0
0
0
0
0
0
0
0
0
0
0
0
0
0
0
0
0
0
0
0
0
-0.003411222
-0.002625583
-0.001954161
-0.001330946
-0.000689931
3.49E-05
0.000909534
0.002
0.0033723
0.005092441
0.007226433
0.009840283
0.013
0.016702565
0.020668854
0.024550716
0.028
0.030767482
0.032999647
0.03494191
0.036839684
0.038938381
0.041483415
0.044703773
0.048450638
0.052197387
0.055400972
0.057518345
0.058028978
0.056930293
0.054737662
0.05198898
0.049222139
0.046960597
0.045395813
0.044387245
0.043779918
0.043418856
0.043149083
0.042812251
0.042172466
0.040916284
0.038726891
0.035287473
0.030304953
0.024032215
0.017268101
0.010835194
0.005534941
0.001682716
-0.000892179
-0.002381577
-0.00297731
-0.002871028
-0.00225019
-0.001298063
-0.000197731
0.000867721
0.001715208
0.002169013
0.002222905
0.002040132
0.001791313
0.001647067
0.001778012
0.002339869
0.003145692
0.003665872
0.003355901
0.001671271
-0.001932527
-0.008
-0.016610081
-0.025979403
-0.033859024
-0.038
-0.037912588
-0.040143838
-0.053
-0.078662121
-0.094810442
-0.073
0.002679539
0.098
0.178117881
0.255866881
0.356
0.491529085
0.628501384
0.72122299
0.724
0.614895432
0.467
0.35676349
0.279044293
0.208302949
0.119
-0.002097944
-0.119
-0.193585616
-0.228439848
-0.236324157
-0.23
-0.219658788
-0.205211733
-0.184
-0.155658858
-0.129
-0.112300491
-0.102522463
-0.093799311
-0.080477968
-0.061816681
-0.041985011
-0.025253201
-0.013295874
-0.005192032
9.22E-05
0.003573653
0.005879332
0.007246198
0.007894281
0.00804361
0.00791331
0.007701766
0.007586613
0.007744587
0.008352425
0.009586862
0.011624634
0.014630386
0.018490697
0.02281408
0.027196958
0.031235752
0.034539485
0.037006956
0.038826743
0.040200026
0.041327981
0.042411786
0.043644358
0.045028622
0.046377511
0.047495697
0.048187853
0.04825865
0.04752695
0.046137921
0.044563048
0.043287999
0.042798445
0.04356223
0.045637222
0.048671314
0.052294571
0.05613706
0.059828848
0.063
0.065399795
0.067254358
0.068909022
0.070709125
0.073
0.076041844
0.079754291
0.083971835
0.088528972
0.093260195
0.098
0.1026066
0.107033088
0.111256276
0.115252976
0.119
0.12259873
0.126648822
0.131874504
0.139
0.148378514
0.158879153
0.169
0.177866376
0.187112543
0.199
0.214572149
0.23
0.241349544
0.249139084
0.255
0.260301407
0.265363355
0.270243625
0.275
0.279628771
0.283880263
0.28744331
0.290006744
0.291259401
0.290890113
0.288611752
0.284690076
0.279943727
0.275215385
0.271347731
0.269130329
0.268131032
0.26669599
0.263118231
0.255690784
0.242861715
0.226644879
0.212397476
0.20051535
0.186501506
0.170778094
0.158718878
0.151551512
0.146134001
0.139134362
0.127379248
0.111343932
0.095043873
0.080159165
0.065945262
0.053144408
0.044017763
0.039140635
0.037333122
0.03733901
0.037902085
0.03779931
0.036570751
0.034519579
0.031982142
0.029294788
0.026784998
0.02457636
0.02258856
0.020732421
0.018918765
0.017062091
0.015161469
0.013300536
0.011566608
0.010046999
0.008829025
0.008
0.007609817
0.007558673
0
0
0
0
0
0
0
0
0
0
0
0
0
0
0
0
0
0
0
0
0
0
0
0
0
0
0
0
0
0
0
0
0
0
0
0
0
0
0
0
0
0
0
0
0
0
0
0
0
0
0
0
0
0
0
0
0
0
0
0
0
0
0
0
0
0
0
0
0
0
0
0
0
0
0
0
0
0
0
0
0
0
0
0
0
0
0
0
0
0
0
0
0
0
0
0
0
0
0
0
0
0
0
0
0
0
0
0
0
0
0
0
0
0
0
0
0
0
0
0
0
0
0
0
0
0
0
0
0
0
0
0
0
0
0
0
0
0
0
0
0
0
0
0
0
0
0
0
0
0
0
0
0
0
0
0
0
0
0
0
0
0
0
0
0
0
0
0
0
0
0
0
0
0
0
0
0
0
0
0
0
0
0
0
0
0
0
0
0
0
0
0
0
0
0
0
0
0
0
0
0
0
0
0
0
0
0
0
0
0
0
0
0
0
0
0
0
0
0
0
0
0
0
0
0
0
0
0
0
0
0
0
0
0
0
0
0
0
0
0
0
0
0
0
0
0
0
0
0
0
0
0
0
0
0
0
0
0
0
0
0
0
0
0
0
0
0
0
0
0
0
0
0
0
0
0
0
0
0
0
0
0
0
0
0
0
0
0
0
0
0
0
0
0
0
0
0
0
0
0
0
0
0
0
0
0
0
0
0
0
0
0
0
0
0
0
0
0
0
0
0
0
0
0
0
0
0
0
0
0
0
0
0
0
0
0
0
0
0
0
0
0
0
0
0
0
0
0
0
0
0
0
0
0
0
0
0
0
0
0
0
0
0
0
0
0
0
0
0
0
0
0
0
0
0
0
0
0
0
0
0
0
0
0
0
0
0
0
0
0
0
0
0
0
0
0
0
0
0
0
0
0
0
0
0
0
0
0
0
0
0
0
0
0
0
0
0
0
0
0
0
0
0
0
0
0
0
0
0
0
0
0
0
0
0
0
0
0
0
0
0
0
0
0
0
0
0
0
0
0
0
0
0
0
0
0
0
0
0
0
0
0
0
0
0
0
0
0
0
0
0
0
0
0
0
0
0
0
0
0
0
0
0
0
0
0
0
0
0
-0.003411222
-0.002625583
-0.001954161
-0.001330946
-0.000689931
3.49E-05
0.000909534
0.002
0.0033723
0.005092441
0.007226433
0.009840283
0.013
0.016702565
0.020668854
0.024550716
0.028
0.030767482
0.032999647
0.03494191
0.036839684
0.038938381
0.041483415
0.044703773
0.048450638
0.052197387
0.055400972
0.057518345
0.058028978
0.056930293
0.054737662
0.05198898
0.049222139
0.046960597
0.045395813
0.044387245
0.043779918
0.043418856
0.043149083
0.042812251
0.042172466
0.040916284
0.038726891
0.035287473
0.030304953
0.024032215
0.017268101
0.010835194
0.005534941
0.001682716
-0.000892179
-0.002381577
-0.00297731
-0.002871028
-0.00225019
-0.001298063
-0.000197731
0.000867721
0.001715208
0.002169013
0.002222905
0.002040132
0.001791313
0.001647067
0.001778012
0.002339869
0.003145692
0.003665872
0.003355901
0.001671271
-0.001932527
-0.008
-0.016610081
-0.025979403
-0.033859024
-0.038
-0.037912588
-0.040143838
-0.053
-0.078662121
-0.094810442
-0.073
0.002679539
0.098
0.178117881
0.255866881
0.356
0.491529085
0.628501384
0.72122299
0.724
0.614895432
0.467
0.35676349
0.279044293
0.208302949
0.119
-0.002097944
-0.119
-0.193585616
-0.228439848
-0.236324157
-0.23
-0.219658788
-0.205211733
-0.184
-0.155658858
-0.129
-0.112300491
-0.102522463
-0.093799311
-0.080477968
-0.061816681
-0.041985011
-0.025253201
-0.013295874
-0.005192032
9.22E-05
0.003573653
0.005879332
0.007246198
0.007894281
0.00804361
0.00791331
0.007701766
0.007586613
0.007744587
0.008352425
0.009586862
0.011624634
0.014630386
0.018490697
0.02281408
0.027196958
0.031235752
0.034539485
0.037006956
0.038826743
0.040200026
0.041327981
0.042411786
0.043644358
0.045028622
0.046377511
0.047495697
0.048187853
0.04825865
0.04752695
0.046137921
0.044563048
0.043287999
0.042798445
0.04356223
0.045637222
0.048671314
0.052294571
0.05613706
0.059828848
0.063
0.065399795
0.067254358
0.068909022
0.070709125
0.073
0.076041844
0.079754291
0.083971835
0.088528972
0.093260195
0.098
0.1026066
0.107033088
0.111256276
0.115252976
0.119
0.12259873
0.126648822
0.131874504
0.139
0.148378514
0.158879153
0.169
0.177866376
0.187112543
0.199
0.214572149
0.23
0.241349544
0.249139084
0.255
0.260301407
0.265363355
0.270243625
0.275
0.279628771
0.283880263
0.28744331
0.290006744
0.291259401
0.290890113
0.288611752
0.284690076
0.279943727
0.275215385
0.271347731
0.269130329
0.268131032
0.26669599
0.263118231
0.255690784
0.242861715
0.226644879
0.212397476
0.20051535
0.186501506
0.170778094
0.158718878
0.151551512
0.146134001
0.139134362
0.127379248
0.111343932
0.095043873
0.080159165
0.065945262
0.053144408
0.044017763
0.039140635
0.037333122
0.03733901
0.037902085
0.03779931
0.036570751
0.034519579
0.031982142
0.029294788
0.026784998
0.02457636
0.02258856
0.020732421
0.018918765
0.017062091
0.015161469
0.013300536
0.011566608
0.010046999
0.008829025
0.008
0.007609817
0.007558673
0
0
0
0
0
0
0
0
0
0
0
0
0
0
0
0
0
0
0
0
0
0
0
0
0
0
0
0
0
0
0
0
0
0
0
0
0
0
0
0
0
0
0
0
0
0
0
0
0
0
0
0
0
0
0
0
0
0
0
0
0
0
0
0
0
0
0
0
0
0
0
0
0
0
0
0
0
0
0
0
0
0
0
0
0
0
0
0
0
0
0
0
0
0
0
0
0
0
0
0
0
0
0
0
0
0
0
0
0
0
0
0
0
0
0
0
0
0
0
0
0
0
0
0
0
0
0
0
0
0
0
0
0
0
0
0
0
0
0
0
0
0
0
0
0
0
0
0
0
0
0
0
0
0
0
0
0
0
0
0
0
0
0
0
0
0
0
0
0
0
0
0
0
0
0
0
0
0
0
0
0
0
0
0
0
0
0
0
0
0
0
0
0
0
0
0
0
0
0
0
0
0
0
0
0
0
0
0
0
0
0
0
0
0
0
0
0
0
0
0
0
0
0
0
0
0
0
0
0
0
0
0
0
0
0
0
0
0
0
0
0
0
0
0
0
0
0
0
0
0
0
0
0
0
0
0
0
0
0
0
0
0
0
0
0
0
0
0
0
0
0
0
0
0
0
0
0
0
0
0
0
0
0
0
0
0
0
0
0
0
0
0
0
0
0
0
0
0
0
0
0
0
0
0
0
0
0
0
0
0
0
0
0
0
0
0
0
0
0
0
0
0
0
0
0
0
0
0
0
0
0
0
0
0
0
0
0
0
0
0
0
0
0
0
0
0
0
0
0
0
0
0
0
0
0
0
0
0
0
0
0
0
0
0
0
0
0
0
0
0
0
0
0
0
0
0
0
0
0
0
0
0
0
0
0
0
0
0
0
0
0
0
0
0
0
0
0
0
0
0
0
0
0
0
0
0
0
0
0
0
0
0
0
0
0
0
0
0
0
0
0
0
0
0
0
0
0
0
0
0
0
0
0
0
0
0
0
0
0
0
0
0
0
0
0
0
0
0
0
0
0
0
0
0
0
0
0
0
0
0
0
0
0
0
0
0
0
0
0
0
0
0
0
0
0
0
0
0
0
0
0
0
0
0
0
0
0
0
0
0
-0.003411222
-0.002625583
-0.001954161
-0.001330946
-0.000689931
3.49E-05
0.000909534
0.002
0.0033723
0.005092441
0.007226433
0.009840283
0.013
0.016702565
0.020668854
0.024550716
0.028
0.030767482
0.032999647
0.03494191
0.036839684
0.038938381
0.041483415
0.044703773
0.048450638
0.052197387
0.055400972
0.057518345
0.058028978
0.056930293
0.054737662
0.05198898
0.049222139
0.046960597
0.045395813
0.044387245
0.043779918
0.043418856
0.043149083
0.042812251
0.042172466
0.040916284
0.038726891
0.035287473
0.030304953
0.024032215
0.017268101
0.010835194
0.005534941
0.001682716
-0.000892179
-0.002381577
-0.00297731
-0.002871028
-0.00225019
-0.001298063
-0.000197731
0.000867721
0.001715208
0.002169013
0.002222905
0.002040132
0.001791313
0.001647067
0.001778012
0.002339869
0.003145692
0.003665872
0.003355901
0.001671271
-0.001932527
-0.008
-0.016610081
-0.025979403
-0.033859024
-0.038
-0.037912588
-0.040143838
-0.053
-0.078662121
-0.094810442
-0.073
0.002679539
0.098
0.178117881
0.255866881
0.356
0.491529085
0.628501384
0.72122299
0.724
0.614895432
0.467
0.35676349
0.279044293
0.208302949
0.119
-0.002097944
-0.119
-0.193585616
-0.228439848
-0.236324157
-0.23
-0.219658788
-0.205211733
-0.184
-0.155658858
-0.129
-0.112300491
-0.102522463
-0.093799311
-0.080477968
-0.061816681
-0.041985011
-0.025253201
-0.013295874
-0.005192032
9.22E-05
0.003573653
0.005879332
0.007246198
0.007894281
0.00804361
0.00791331
0.007701766
0.007586613
0.007744587
0.008352425
0.009586862
0.011624634
0.014630386
0.018490697
0.02281408
0.027196958
0.031235752
0.034539485
0.037006956
0.038826743
0.040200026
0.041327981
0.042411786
0.043644358
0.045028622
0.046377511
0.047495697
0.048187853
0.04825865
0.04752695
0.046137921
0.044563048
0.043287999
0.042798445
0.04356223
0.045637222
0.048671314
0.052294571
0.05613706
0.059828848
0.063
0.065399795
0.067254358
0.068909022
0.070709125
0.073
0.076041844
0.079754291
0.083971835
0.088528972
0.093260195
0.098
0.1026066
0.107033088
0.111256276
0.115252976
0.119
0.12259873
0.126648822
0.131874504
0.139
0.148378514
0.158879153
0.169
0.177866376
0.187112543
0.199
0.214572149
0.23
0.241349544
0.249139084
0.255
0.260301407
0.265363355
0.270243625
0.275
0.279628771
0.283880263
0.28744331
0.290006744
0.291259401
0.290890113
0.288611752
0.284690076
0.279943727
0.275215385
0.271347731
0.269130329
0.268131032
0.26669599
0.263118231
0.255690784
0.242861715
0.226644879
0.212397476
0.20051535
0.186501506
0.170778094
0.158718878
0.151551512
0.146134001
0.139134362
0.127379248
0.111343932
0.095043873
0.080159165
0.065945262
0.053144408
0.044017763
0.039140635
0.037333122
0.03733901
0.037902085
0.03779931
0.036570751
0.034519579
0.031982142
0.029294788
0.026784998
0.02457636
0.02258856
0.020732421
0.018918765
0.017062091
0.015161469
0.013300536
0.011566608
0.010046999
0.008829025
0.008
0.007609817
0.007558673
0
0
0
0
0
0
0
0
0
0
0
0
0
0
0
0
0
0
0
0
0
0
0
0
0
0
0
0
0
0
0
0
0
0
0
0
0
0
0
0
0
0
0
0
0
0
0
0
0
0
0
0
0
0
0
0
0
0
0
0
0
0
0
0
0
0
0
0
0
0
0
0
0
0
0
0
0
0
0
0
0
0
0
0
0
0
0
0
0
0
0
0
0
0
0
0
0
0
0
0
0
0
0
0
0
0
0
0
0
0
0
0
0
0
0
0
0
0
0
0
0
0
0
0
0
0
0
0
0
0
0
0
0
0
0
0
0
0
0
0
0
0
0
0
0
0
0
0
0
0
0
0
0
0
0
0
0
0
0
0
0
0
0
0
0
0
0
0
0
0
0
0
0
0
0
0
0
