0.002,0
0.004,0
0.006,0
0.008,0
0.01,0
0.012,0
0.014,0
0.016,0
0.018,0
0.02,0
0.022,0
0.024,0
0.026,0
0.028,0
0.03,0
0.032,0
0.034,0
0.036,0
0.038,0
0.04,0
0.042,0
0.044,-0.00341122183690235
0.046,-0.00262558322466033
0.048,-0.00195416071886167
0.05,-0.00133094603989153
0.052,-0.000689930908135128
0.054,3.4892956022381e-05
0.056,0.00090953383219583
0.058,0.002
0.06,0.00337229973904968
0.062,0.00509244132895975
0.064,0.00722643304934489
0.066,0.00984028317982005
0.068,0.013
0.07,0.0167025652305922
0.072,0.0206688543566754
0.074,0.0245507163044208
0.076,0.028
0.078,0.0307674817593395
0.08,0.0329996474573879
0.082,0.0349419103588489
0.084,0.0368396837284266
0.086,0.0389383808308247
0.088,0.0414834149307472
0.09,0.0447037730113203
0.092,0.0484506375793874
0.094,0.0521973866655089
0.096,0.0554009720186675
0.098,0.0575183453878461
0.1,0.0580289781310401
0.102,0.0569302926135359
0.104,0.0547376622079105
0.106,0.0519889798957538
0.108,0.0492221386586554
0.11,0.0469605967091873
0.112,0.045395812572507
0.114,0.0443872450863583
0.116,0.0437799183194667
0.118,0.043418856340558
0.12,0.0431490832183577
0.122,0.0428122513891604
0.124,0.0421724657433454
0.126,0.0409162836253769
0.128,0.0387268907472877
0.13,0.0352874728211109
0.132,0.0303049529630062
0.134,0.0240322145840481
0.136,0.0172681013902257
0.138,0.0108351944916548
0.14,0.00553494138601612
0.142,0.00168271648497476
0.144,-0.000892178885819161
0.146,-0.00238157701315089
0.148,-0.00297731018380587
0.15,-0.00287102844511333
0.152,-0.00225019033691159
0.154,-0.00129806289154827
0.156,-0.000197730901914883
0.158,0.000867720839097141
0.16,0.00171520753859633
0.162,0.00216901322331536
0.164,0.0022229047713434
0.166,0.00204013191212593
0.168,0.00179131319473264
0.17,0.00164706716823321
0.172,0.00177801238169734
0.174,0.00233986891277149
0.176,0.00314569199636844
0.178,0.00366587202466734
0.18,0.00335590091842403
0.182,0.00167127059839439
0.184,-0.00193252701466562
0.186,-0.00800000000000012
0.188,-0.0166100813235882
0.19,-0.0259794034983483
0.192,-0.0338590239239344
0.194,-0.038
0.196,-0.0379125877881391
0.198,-0.0401438379977072
0.2,-0.053
0.202,-0.078662121296825
0.204,-0.0948104419120364
0.206,-0.073
0.208,0.00267953893637424
0.21,0.098
0.212,0.178117881186059
0.214,0.255866881452979
0.216,0.356000000000002
0.218,0.491529085386149
0.22,0.628501383609573
0.222,0.721222990028212
0.224,0.724
0.226,0.614895432378527
0.228,0.467
0.23,0.356763489984521
0.232,0.279044292605157
0.234,0.208302948923214
0.236,0.119
0.238,-0.00209794443755174
0.24,-0.119
0.242,-0.193585615626068
0.244,-0.22843984822964
0.246,-0.236324156718392
0.248,-0.23
0.25,-0.219658787808854
0.252,-0.2052117331862
0.254,-0.184
0.256,-0.155658857942114
0.258,-0.129
0.26,-0.112300491341789
0.262,-0.102522462562715
0.264,-0.093799310614784
0.266,-0.0804779678558527
0.268,-0.0618166809782733
0.27,-0.0419850110088955
0.272,-0.0252532012974333
0.274,-0.013295874284988
0.276,-0.00519203150404735
0.278,9.21785958835075e-05
0.28,0.00357365292416462
0.282,0.00587933164404619
0.284,0.00724619817266858
0.286,0.00789428128603703
0.288,0.00804360976015678
0.29,0.00791331043088433
0.292,0.0077017655106561
0.294,0.00758661258848853
0.296,0.00774458731324928
0.298,0.00835242533380609
0.3,0.00958686229902661
0.302,0.0116246338577786
0.304,0.0146303858013305
0.306,0.0184906971961728
0.308,0.0228140803840169
0.31,0.0271969578489757
0.312,0.0312357520751616
0.314,0.0345394846130014
0.316,0.0370069555381451
0.318,0.0388267434514659
0.32,0.0402000260201512
0.322,0.041327980911388
0.324,0.0424117857923639
0.326,0.0436443578015284
0.328,0.0450286219163644
0.33,0.046377510953388
0.332,0.0474956972003777
0.334,0.048187852945112
0.336,0.0482586504753694
0.338,0.0441157276903578
0.34,0.0435123379238679
0.342,0.0426088869796892
0.344,0.0419570529451456
0.346,0.0421085139075613
0.348,0.0435971228852047
0.35,0.0465467563080702
0.352,0.0506713140178778
0.354,0.055666870787292
0.356,0.0612295013889774
0.358,0.0670552805955985
0.36,0.0728402831798201
0.362,0.0783997954020014
0.364,0.0839569229143749
0.366,0.0895778766212385
0.368,0.0952598408679832
0.37,0.101
0.372,0.106809325604374
0.374,0.11275393823497
0.376,0.118913745687346
0.378,0.125368655757062
0.38,0.132198576239676
0.382,0.139483414930747
0.384,0.147310372946659
0.386,0.155483725337124
0.388,0.163453662277974
0.39,0.170653947663463
0.392,0.176518345387846
0.394,0.180627707961343
0.396,0.183579114929279
0.398,0.186612165851222
0.4,0.190988979895754
0.402,0.197600652486467
0.404,0.20583974929798
0.406,0.214395812572507
0.408,0.222253620742422
0.41,0.230892460981367
0.412,0.242418856340558
0.414,0.257721232170841
0.416,0.27281225138916
0.418,0.283522009684118
0.42,0.29005536727017
0.422,0.293726890747288
0.424,0.29558888031401
0.426,0.295668307967294
0.428,0.29427583959758
0.43,0.292268101390226
0.432,0.290463965451007
0.434,0.289415204338433
0.436,0.289126026041292
0.438,0.289114565462356
0.44,0.288877823891963
0.442,0.287912802620448
0.444,0.285740723659635
0.446,0.282439885615553
0.448,0.27864566368843
0.45,0.275017653799984
0.452,0.272215451871933
0.454,0.27084553609397
0.456,0.270300045638879
0.458,0.268918894694268
0.46,0.265158362567075
0.462,0.257482097383865
0.464,0.244508781753445
0.466,0.228422891376254
0.468,0.214737344909255
0.47,0.203661042384278
0.472,0.19016737845352
0.474,0.174133995372228
0.476,0.160390148169182
0.478,0.149618985414655
0.48,0.138134001492668
0.482,0.122524280935886
0.484,0.101399844390754
0.486,0.0774849078135219
0.488,0.0570438725833724
0.49,0.0422465772852451
0.492,0.0258014237797016
0.494,0.000144407969006638
0.496,-0.0346443583367689
0.498,-0.055669807228732
0.5,-0.0356668780240343
0.502,0.0400185491726923
0.504,0.135902084862639
0.506,0.215917190827681
0.508,0.292437632746494
0.51,0.390519579472117
0.512,0.523511227605788
0.514,0.657796171187873
0.516,0.748007988501665
0.518,0.748576360142637
0.52,0.637483992514101
0.522,0.487732420885128
0.524,0.375682254808681
0.526,0.29610638392011
0.528,0.223464418019675
0.53,0.132300536284309
0.532,0.00946866348598957
0.534,-0.108953000940796
0.536,-0.184756590889726
0.538,-0.22043984822964
0.54,-0.228714340135304
0.542,-0.22244132703003
0.544,-0.219658787808854
0.546,-0.2052117331862
0.548,-0.184
0.55,-0.155658857942114
0.552,-0.129
0.554,-0.112300491341789
0.556,-0.102522462562715
0.558,-0.093799310614784
0.56,-0.0804779678558527
0.562,-0.0618166809782733
0.564,-0.0419850110088955
0.566,-0.0252532012974333
0.568,-0.013295874284988
0.57,-0.00519203150404735
0.572,9.21785958835075e-05
0.574,0.00357365292416462
0.576,0.00587933164404619
0.578,0.00724619817266858
0.58,0.00789428128603703
0.582,0.00804360976015678
0.584,0.00791331043088433
0.586,0.0077017655106561
0.588,0.00758661258848853
0.59,0.00774458731324928
0.592,0.00835242533380609
0.594,0.00958686229902661
0.596,0.0116246338577786
0.598,0.0146303858013305
0.6,0.0184906971961728
0.602,0.0228140803840169
0.604,0.0271969578489757
0.606,0.0312357520751616
0.608,0.0345394846130014
0.61,0.0370069555381451
0.612,0.0388267434514659
0.614,0.0402000260201512
0.616,0.041327980911388
0.618,0.0424117857923639
0.62,0.0436443578015284
0.622,0.0450286219163644
0.624,0.046377510953388
0.626,0.0474956972003777
0.628,0.048187852945112
0.63,0.0482586504753694
0.632,0.0441157276903578
0.634,0.0435123379238679
0.636,0.0426088869796892
0.638,0.0419570529451456
0.64,0.0421085139075613
0.642,0.0435971228852047
0.644,0.0465467563080702
0.646,0.0506713140178778
0.648,0.055666870787292
0.65,0.0612295013889774
0.652,0.0670552805955985
0.654,0.0728402831798201
0.656,0.0783997954020014
0.658,0.0839569229143749
0.66,0.0895778766212385
0.662,0.0952598408679832
0.664,0.101
0.666,0.106809325604374
0.668,0.11275393823497
0.67,0.118913745687346
0.672,0.125368655757062
0.674,0.132198576239676
0.676,0.139483414930747
0.678,0.147310372946659
0.68,0.155483725337124
0.682,0.163453662277974
0.684,0.170653947663463
0.686,0.176518345387846
0.688,0.180627707961343
0.69,0.183579114929279
0.692,0.186612165851222
0.694,0.190988979895754
0.696,0.197600652486467
0.698,0.20583974929798
0.7,0.214395812572507
0.702,0.222253620742422
0.704,0.230892460981367
0.706,0.242418856340558
0.708,0.257721232170841
0.71,0.27281225138916
0.712,0.283522009684118
0.714,0.29005536727017
0.716,0.293726890747288
0.718,0.29558888031401
0.72,0.295668307967294
0.722,0.29427583959758
0.724,0.292268101390226
0.726,0.290463965451007
0.728,0.289415204338433
0.73,0.289126026041292
0.732,0.289114565462356
0.734,0.288877823891963
0.736,0.287912802620448
0.738,0.285740723659635
0.74,0.282439885615553
0.742,0.27864566368843
0.744,0.275017653799984
0.746,0.272215451871933
0.748,0.27084553609397
0.75,0.270300045638879
0.752,0.268918894694268
0.754,0.265158362567075
0.756,0.257482097383865
0.758,0.244508781753445
0.76,0.228422891376254
0.762,0.214737344909255
0.764,0.203661042384278
0.766,0.19016737845352
0.768,0.174133995372228
0.77,0.160390148169182
0.772,0.149618985414655
0.774,0.138134001492668
0.776,0.122524280935886
0.778,0.101399844390754
0.78,0.0774849078135219
0.782,0.0570438725833724
0.784,0.0422465772852451
0.786,0.0258014237797016
0.788,0.000144407969006638
0.79,-0.0346443583367689
0.792,-0.055669807228732
0.794,-0.0356668780240343
0.796,0.0400185491726923
0.798,0.135902084862639
0.8,0.215917190827681
0.802,0.292437632746494
0.804,0.390519579472117
0.806,0.523511227605788
0.808,0.657796171187873
0.81,0.748007988501665
0.812,0.748576360142637
0.814,0.637483992514101
0.816,0.487732420885128
0.818,0.375682254808681
0.82,0.29610638392011
0.822,0.223464418019675
0.824,0.132300536284309
0.826,0.00946866348598957
0.828,-0.108953000940796
0.83,-0.184756590889726
0.832,-0.22043984822964
0.834,-0.228714340135304
0.836,-0.22244132703003
0.838,-0.219658787808854
0.84,-0.2052117331862
0.842,-0.184
0.844,-0.155658857942114
0.846,-0.129
0.848,-0.112300491341789
0.85,-0.102522462562715
0.852,-0.093799310614784
0.854,-0.0804779678558527
0.856,-0.0618166809782733
0.858,-0.0419850110088955
0.86,-0.0252532012974333
0.862,-0.013295874284988
0.864,-0.00519203150404735
0.866,9.21785958835075e-05
0.868,0.00357365292416462
0.87,0.00587933164404619
0.872,0.00724619817266858
0.874,0.00789428128603703
0.876,0.00804360976015678
0.878,0.00791331043088433
0.88,0.0077017655106561
0.882,0.00758661258848853
0.884,0.00774458731324928
0.886,0.00835242533380609
0.888,0.00958686229902661
0.89,0.0116246338577786
0.892,0.0146303858013305
0.894,0.0184906971961728
0.896,0.0228140803840169
0.898,0.0271969578489757
0.9,0.0312357520751616
0.902,0.0345394846130014
0.904,0.0370069555381451
0.906,0.0388267434514659
0.908,0.0402000260201512
0.91,0.041327980911388
0.912,0.0424117857923639
0.914,0.0436443578015284
0.916,0.0450286219163644
0.918,0.046377510953388
0.92,0.0474956972003777
0.922,0.048187852945112
0.924,0.0482586504753694
0.926,0.0475269495272602
0.928,0.0427266993116259
0.93,0.0419374644738905
0.932,0.0413338382661755
0.934,0.0414674987758049
0.936,0.0428722990210472
0.938,0.0456721154318968
0.94,0.0495808478500736
0.942,0.0542945710482423
0.944,0.0595093597990674
0.946,0.0649212888752134
0.948,0.0702264330493449
0.95,0.0752400785818215
0.952,0.0802543576837826
0.954,0.0856115874951554
0.956,0.0913779789202377
0.958,0.0975507163044208
0.96,0.104041843845035
0.962,0.110521772536922
0.964,0.116971482785885
0.966,0.123470882387485
0.968,0.130099879137278
0.97,0.136938380830825
0.972,0.144090014866086
0.974,0.151736860769057
0.976,0.159706913191852
0.978,0.167450362310305
0.98,0.174400972018667
0.982,0.180117075218149
0.984,0.184677800446783
0.986,0.188804796256847
0.988,0.19373766220791
0.99,0.200367493723565
0.992,0.208101291247448
0.994,0.215960596709187
0.996,0.22326218822857
0.998,0.231499787748259
1,0.242779918319467
1.002,0.257991005293042
1.004,0.273149083218358
1.006,0.284161795329933
1.008,0.291311549388139
1.01,0.295916283625377
1.012,0.299028298240187
1.014,0.300650827825399
1.016,0.300548577976538
1.018,0.299032214584048
1.02,0.296896872349577
1.022,0.294715457444072
1.024,0.292978250942333
1.026,0.29168946083315
1.028,0.290367222019295
1.03,0.288508535791103
1.032,0.285634441920943
1.034,0.281819047507351
1.036,0.277693536243066
1.038,0.273917321810351
1.04,0.271150000130921
1.042,0.269998049394471
1.044,0.26984623995416
1.046,0.26886500314624
1.048,0.265341135426293
1.05,0.257730916101258
1.052,0.244653027779945
1.054,0.22829194616279
1.056,0.214175488378181
1.058,0.202855219300681
1.06,0.189647198425221
1.062,0.174443966478472
1.064,0.162074778489212
1.066,0.153222783027715
1.068,0.144201474478003
1.07,0.131134362259474
1.072,0.110769166565514
1.074,0.085364528239108
1.076,0.061184848659438
1.078,0.0421591650733843
1.08,0.0280326739892696
1.082,0.0130005699712994
1.084,-0.00898223703994391
1.086,-0.0395214866135206
1.088,-0.0574773199360707
1.09,-0.035660989763682
1.092,0.0405816237990134
1.094,0.135799309641623
1.096,0.214688632479573
1.098,0.290386460925094
1.1,0.38798214221964
1.102,0.520823872964449
1.104,0.655286382083026
1.106,0.745799350170849
1.108,0.746588560135574
1.11,0.635627853263655
1.112,0.48591876482416
1.114,0.373825581299474
1.116,0.294205761701618
1.118,0.221603485207523
1.12,0.130566607923541
1.122,0.00794905462165207
1.124,-0.110170975263658
1.126,-0.185585615626068
1.128,-0.220830031646552
1.13,-0.228765483748422
1.132,-0.23
1.134,-0.219658787808854
1.136,-0.2052117331862
1.138,-0.184
1.14,-0.155658857942114
1.142,-0.129
1.144,-0.112300491341789
1.146,-0.102522462562715
1.148,-0.093799310614784
1.15,-0.0804779678558527
1.152,-0.0618166809782733
1.154,-0.0419850110088955
1.156,-0.0252532012974333
1.158,-0.013295874284988
1.16,-0.00519203150404735
1.162,9.21785958835075e-05
1.164,0.00357365292416462
1.166,0.00587933164404619
1.168,0.00724619817266858
1.17,0.00789428128603703
1.172,0.00804360976015678
1.174,0.00791331043088433
1.176,0.0077017655106561
1.178,0.00758661258848853
1.18,0.00774458731324928
1.182,0.00835242533380609
1.184,0.00958686229902661
1.186,0.0116246338577786
1.188,0.0146303858013305
1.19,0.0184906971961728
1.192,0.0228140803840169
1.194,0.0271969578489757
1.196,0.0312357520751616
1.198,0.0345394846130014
1.2,0.0370069555381451
1.202,0.0388267434514659
1.204,0.0402000260201512
1.206,0.041327980911388
1.208,0.0424117857923639
1.21,0.0436443578015284
1.212,0.0450286219163644
1.214,0.046377510953388
1.216,0.0474956972003777
1.218,0.048187852945112
1.22,0.0482586504753694
1.222,0.0475269495272602
1.224,0.0427266993116259
1.226,0.0419374644738905
1.228,0.0413338382661755
1.23,0.0414674987758049
1.232,0.0428722990210472
1.234,0.0456721154318968
1.236,0.0495808478500736
1.238,0.0542945710482423
1.24,0.0595093597990674
1.242,0.0649212888752134
1.244,0.0702264330493449
1.246,0.0752400785818215
1.248,0.0802543576837826
1.25,0.0856115874951554
1.252,0.0913779789202377
1.254,0.0975507163044208
1.256,0.104041843845035
1.258,0.110521772536922
1.26,0.116971482785885
1.262,0.123470882387485
1.264,0.130099879137278
1.266,0.136938380830825
1.268,0.144090014866086
1.27,0.151736860769057
1.272,0.159706913191852
1.274,0.167450362310305
1.276,0.174400972018667
1.278,0.180117075218149
1.28,0.184677800446783
1.282,0.188804796256847
1.284,0.19373766220791
1.286,0.200367493723565
1.288,0.208101291247448
1.29,0.215960596709187
1.292,0.22326218822857
1.294,0.231499787748259
1.296,0.242779918319467
1.298,0.257991005293042
1.3,0.273149083218358
1.302,0.284161795329933
1.304,0.291311549388139
1.306,0.295916283625377
1.308,0.299028298240187
1.31,0.300650827825399
1.312,0.300548577976538
1.314,0.299032214584048
1.316,0.296896872349577
1.318,0.294715457444072
1.32,0.292978250942333
1.322,0.29168946083315
1.324,0.290367222019295
1.326,0.288508535791103
1.328,0.285634441920943
1.33,0.281819047507351
1.332,0.277693536243066
1.334,0.273917321810351
1.336,0.271150000130921
1.338,0.269998049394471
1.34,0.26984623995416
1.342,0.26886500314624
1.344,0.265341135426293
1.346,0.257730916101258
1.348,0.244653027779945
1.35,0.22829194616279
1.352,0.214175488378181
1.354,0.202855219300681
1.356,0.189647198425221
1.358,0.174443966478472
1.36,0.162074778489212
1.362,0.153222783027715
1.364,0.144201474478003
1.366,0.131134362259474
1.368,0.110769166565514
1.37,0.085364528239108
1.372,0.061184848659438
1.374,0.0421591650733843
1.376,0.0280326739892696
1.378,0.0130005699712994
1.38,-0.00898223703994391
1.382,-0.0395214866135206
1.384,-0.0574773199360707
1.386,-0.035660989763682
1.388,0.0405816237990134
1.39,0.135799309641623
1.392,0.214688632479573
1.394,0.290386460925094
1.396,0.38798214221964
1.398,0.520823872964449
1.4,0.655286382083026
1.402,0.745799350170849
1.404,0.746588560135574
1.406,0.635627853263655
1.408,0.48591876482416
1.41,0.373825581299474
1.412,0.294205761701618
1.414,0.221603485207523
1.416,0.130566607923541
1.418,0.00794905462165207
1.42,-0.110170975263658
1.422,-0.185585615626068
1.424,-0.220830031646552
1.426,-0.228765483748422
1.428,-0.23
1.43,-0.219658787808854
1.432,-0.2052117331862
1.434,-0.184
1.436,-0.155658857942114
1.438,-0.129
1.44,-0.112300491341789
1.442,-0.102522462562715
1.444,-0.093799310614784
1.446,-0.0804779678558527
1.448,-0.0618166809782733
1.45,-0.0419850110088955
1.452,-0.0252532012974333
1.454,-0.013295874284988
1.456,-0.00519203150404735
1.458,9.21785958835075e-05
1.46,0.00357365292416462
1.462,0.00587933164404619
1.464,0.00724619817266858
1.466,0.00789428128603703
1.468,0.00804360976015678
1.47,0.00791331043088433
1.472,0.0077017655106561
1.474,0.00758661258848853
1.476,0.00774458731324928
1.478,0.00835242533380609
1.48,0.00958686229902661
1.482,0.0116246338577786
1.484,0.0146303858013305
1.486,0.0184906971961728
1.488,0.0228140803840169
1.49,0.0271969578489757
1.492,0.0312357520751616
1.494,0.0345394846130014
1.496,0.0370069555381451
1.498,0.0388267434514659
1.5,0.0402000260201512
1.502,0.041327980911388
1.504,0.0424117857923639
1.506,0.0436443578015284
1.508,0.0450286219163644
1.51,0.046377510953388
1.512,0.0474956972003777
1.514,0.048187852945112
1.516,0.0482586504753694
1.518,0.0475269495272602
1.52,0.0427266993116259
1.522,0.0419374644738905
1.524,0.0413338382661755
1.526,0.0414674987758049
1.528,0.0428722990210472
1.53,0.0456721154318968
1.532,0.0495808478500736
1.534,0.0542945710482423
1.536,0.0595093597990674
1.538,0.0649212888752134
1.54,0.0702264330493449
1.542,0.0752400785818215
1.544,0.0802543576837826
1.546,0.0856115874951554
1.548,0.0913779789202377
1.55,0.0975507163044208
1.552,0.104041843845035
1.554,0.110521772536922
1.556,0.116971482785885
1.558,0.123470882387485
1.56,0.130099879137278
1.562,0.136938380830825
1.564,0.144090014866086
1.566,0.151736860769057
1.568,0.159706913191852
1.57,0.167450362310305
1.572,0.174400972018667
1.574,0.180117075218149
1.576,0.184677800446783
1.578,0.188804796256847
1.58,0.19373766220791
1.582,0.200367493723565
1.584,0.208101291247448
1.586,0.215960596709187
1.588,0.22326218822857
1.59,0.231499787748259
1.592,0.242779918319467
1.594,0.257991005293042
1.596,0.273149083218358
1.598,0.284161795329933
1.6,0.291311549388139
1.602,0.295916283625377
1.604,0.299028298240187
1.606,0.300650827825399
1.608,0.300548577976538
1.61,0.299032214584048
1.612,0.296896872349577
1.614,0.294715457444072
1.616,0.292978250942333
1.618,0.29168946083315
1.62,0.290367222019295
1.622,0.288508535791103
1.624,0.285634441920943
1.626,0.281819047507351
1.628,0.277693536243066
1.63,0.273917321810351
1.632,0.271150000130921
1.634,0.269998049394471
1.636,0.26984623995416
1.638,0.26886500314624
1.64,0.265341135426293
1.642,0.257730916101258
1.644,0.244653027779945
1.646,0.22829194616279
1.648,0.214175488378181
1.65,0.202855219300681
1.652,0.189647198425221
1.654,0.174443966478472
1.656,0.162074778489212
1.658,0.153222783027715
1.66,0.144201474478003
1.662,0.131134362259474
1.664,0.110769166565514
1.666,0.085364528239108
1.668,0.061184848659438
1.67,0.0421591650733843
1.672,0.0280326739892696
1.674,0.0130005699712994
1.676,-0.00898223703994391
1.678,-0.0395214866135206
1.68,-0.0574773199360707
1.682,-0.035660989763682
1.684,0.0405816237990134
1.686,0.135799309641623
1.688,0.214688632479573
1.69,0.290386460925094
1.692,0.38798214221964
1.694,0.520823872964449
1.696,0.655286382083026
1.698,0.745799350170849
1.7,0.746588560135574
1.702,0.635627853263655
1.704,0.48591876482416
1.706,0.373825581299474
1.708,0.294205761701618
1.71,0.221603485207523
1.712,0.130566607923541
1.714,0.00794905462165207
1.716,-0.110170975263658
1.718,-0.185585615626068
1.72,-0.220830031646552
1.722,-0.228765483748422
1.724,-0.23
1.726,-0.219658787808854
1.728,-0.2052117331862
1.73,-0.184
1.732,-0.155658857942114
1.734,-0.129
1.736,-0.112300491341789
1.738,-0.102522462562715
1.74,-0.093799310614784
1.742,-0.0804779678558527
1.744,-0.0618166809782733
1.746,-0.0419850110088955
1.748,-0.0252532012974333
1.75,-0.013295874284988
1.752,-0.00519203150404735
1.754,9.21785958835075e-05
1.756,0.00357365292416462
1.758,0.00587933164404619
1.76,0.00724619817266858
1.762,0.00789428128603703
1.764,0.00804360976015678
1.766,0.00791331043088433
1.768,0.0077017655106561
1.77,0.00758661258848853
1.772,0.00774458731324928
1.774,0.00835242533380609
1.776,0.00958686229902661
1.778,0.0116246338577786
1.78,0.0146303858013305
1.782,0.0184906971961728
1.784,0.0228140803840169
1.786,0.0271969578489757
1.788,0.0312357520751616
1.79,0.0345394846130014
1.792,0.0370069555381451
1.794,0.0388267434514659
1.796,0.0402000260201512
1.798,0.041327980911388
1.8,0.0424117857923639
1.802,0.0436443578015284
1.804,0.0450286219163644
1.806,0.046377510953388
1.808,0.0474956972003777
1.81,0.048187852945112
1.812,0.0482586504753694
1.814,0.0475269495272602
1.816,0.0427266993116259
1.818,0.0419374644738905
1.82,0.0413338382661755
1.822,0.0414674987758049
1.824,0.0428722990210472
1.826,0.0456721154318968
1.828,0.0495808478500736
1.83,0.0542945710482423
1.832,0.0595093597990674
1.834,0.0649212888752134
1.836,0.0702264330493449
1.838,0.0752400785818215
1.84,0.0802543576837826
1.842,0.0856115874951554
1.844,0.0913779789202377
1.846,0.0975507163044208
1.848,0.104041843845035
1.85,0.110521772536922
1.852,0.116971482785885
1.854,0.123470882387485
1.856,0.130099879137278
1.858,0.136938380830825
1.86,0.144090014866086
1.862,0.151736860769057
1.864,0.159706913191852
1.866,0.167450362310305
1.868,0.174400972018667
1.87,0.180117075218149
1.872,0.184677800446783
1.874,0.188804796256847
1.876,0.19373766220791
1.878,0.200367493723565
1.88,0.208101291247448
1.882,0.215960596709187
1.884,0.22326218822857
1.886,0.231499787748259
1.888,0.242779918319467
1.89,0.257991005293042
1.892,0.273149083218358
1.894,0.284161795329933
1.896,0.291311549388139
1.898,0.295916283625377
1.9,0.299028298240187
1.902,0.300650827825399
1.904,0.300548577976538
1.906,0.299032214584048
1.908,0.296896872349577
1.91,0.294715457444072
1.912,0.292978250942333
1.914,0.29168946083315
1.916,0.290367222019295
1.918,0.288508535791103
1.92,0.285634441920943
1.922,0.281819047507351
1.924,0.277693536243066
1.926,0.273917321810351
1.928,0.271150000130921
1.93,0.269998049394471
1.932,0.26984623995416
1.934,0.26886500314624
1.936,0.265341135426293
1.938,0.257730916101258
1.94,0.244653027779945
1.942,0.22829194616279
1.944,0.214175488378181
1.946,0.202855219300681
1.948,0.189647198425221
1.95,0.174443966478472
1.952,0.162074778489212
1.954,0.153222783027715
1.956,0.144201474478003
1.958,0.131134362259474
1.96,0.110769166565514
1.962,0.085364528239108
1.964,0.061184848659438
1.966,0.0421591650733843
1.968,0.0280326739892696
1.97,0.0130005699712994
1.972,-0.00898223703994391
1.974,-0.0395214866135206
1.976,-0.0574773199360707
1.978,-0.035660989763682
1.98,0.0405816237990134
1.982,0.135799309641623
1.984,0.214688632479573
1.986,0.290386460925094
1.988,0.38798214221964
1.99,0.520823872964449
1.992,0.655286382083026
1.994,0.745799350170849
1.996,0.746588560135574
1.998,0.635627853263655
2,0.48591876482416
2.002,0.373825581299474
2.004,0.294205761701618
2.006,0.221603485207523
2.008,0.130566607923541
2.01,0.00794905462165207
2.012,-0.110170975263658
2.014,-0.185585615626068
2.016,-0.220830031646552
2.018,-0.228765483748422
2.02,-0.23
2.022,-0.219658787808854
2.024,-0.2052117331862
2.026,-0.184
2.028,-0.155658857942114
2.03,-0.129
2.032,-0.112300491341789
2.034,-0.102522462562715
2.036,-0.093799310614784
2.038,-0.0804779678558527
2.04,-0.0618166809782733
2.042,-0.0419850110088955
2.044,-0.0252532012974333
2.046,-0.013295874284988
2.048,-0.00519203150404735
2.05,9.21785958835075e-05
2.052,0.00357365292416462
2.054,0.00587933164404619
2.056,0.00724619817266858
2.058,0.00789428128603703
2.06,0.00804360976015678
2.062,0.00791331043088433
2.064,0.0077017655106561
2.066,0.00758661258848853
2.068,0.00774458731324928
2.07,0.00835242533380609
2.072,0.00958686229902661
2.074,0.0116246338577786
2.076,0.0146303858013305
2.078,0.0184906971961728
2.08,0.0228140803840169
2.082,0.0271969578489757
2.084,0.0312357520751616
2.086,0.0345394846130014
2.088,0.0370069555381451
2.09,0.0388267434514659
2.092,0.0402000260201512
2.094,0.041327980911388
2.096,0.0424117857923639
2.098,0.0436443578015284
2.1,0.0450286219163644
2.102,0.046377510953388
2.104,0.0474956972003777
2.106,0.048187852945112
2.108,0.0482586504753694
2.11,0.0475269495272602
2.112,0.0427266993116259
2.114,0.0419374644738905
2.116,0.0413338382661755
2.118,0.0414674987758049
2.12,0.0428722990210472
2.122,0.0456721154318968
2.124,0.0495808478500736
2.126,0.0542945710482423
2.128,0.0595093597990674
2.13,0.0649212888752134
2.132,0.0702264330493449
2.134,0.0752400785818215
2.136,0.0802543576837826
2.138,0.0856115874951554
2.14,0.0913779789202377
2.142,0.0975507163044208
2.144,0.104041843845035
2.146,0.110521772536922
2.148,0.116971482785885
2.15,0.123470882387485
2.152,0.130099879137278
2.154,0.136938380830825
2.156,0.144090014866086
2.158,0.151736860769057
2.16,0.159706913191852
2.162,0.167450362310305
2.164,0.174400972018667
2.166,0.180117075218149
2.168,0.184677800446783
2.17,0.188804796256847
2.172,0.19373766220791
2.174,0.200367493723565
2.176,0.208101291247448
2.178,0.215960596709187
2.18,0.22326218822857
2.182,0.231499787748259
2.184,0.242779918319467
2.186,0.257991005293042
2.188,0.273149083218358
2.19,0.284161795329933
2.192,0.291311549388139
2.194,0.295916283625377
2.196,0.299028298240187
2.198,0.300650827825399
2.2,0.300548577976538
2.202,0.299032214584048
2.204,0.296896872349577
2.206,0.294715457444072
2.208,0.292978250942333
2.21,0.29168946083315
2.212,0.290367222019295
2.214,0.288508535791103
2.216,0.285634441920943
2.218,0.281819047507351
2.22,0.277693536243066
2.222,0.273917321810351
2.224,0.271150000130921
2.226,0.269998049394471
2.228,0.26984623995416
2.23,0.26886500314624
2.232,0.265341135426293
2.234,0.257730916101258
2.236,0.244653027779945
2.238,0.22829194616279
2.24,0.214175488378181
2.242,0.202855219300681
2.244,0.189647198425221
2.246,0.174443966478472
2.248,0.162074778489212
2.25,0.153222783027715
2.252,0.144201474478003
2.254,0.131134362259474
2.256,0.110769166565514
2.258,0.085364528239108
2.26,0.061184848659438
2.262,0.0421591650733843
2.264,0.0280326739892696
2.266,0.0130005699712994
2.268,-0.00898223703994391
2.27,-0.0395214866135206
2.272,-0.0574773199360707
2.274,-0.035660989763682
2.276,0.0405816237990134
2.278,0.135799309641623
2.28,0.214688632479573
2.282,0.290386460925094
2.284,0.38798214221964
2.286,0.520823872964449
2.288,0.655286382083026
2.29,0.745799350170849
2.292,0.746588560135574
2.294,0.635627853263655
2.296,0.48591876482416
2.298,0.373825581299474
2.3,0.294205761701618
2.302,0.221603485207523
2.304,0.130566607923541
2.306,0.00794905462165207
2.308,-0.110170975263658
2.31,-0.185585615626068
2.312,-0.220830031646552
2.314,-0.228765483748422
2.316,-0.23
2.318,-0.219658787808854
2.32,-0.2052117331862
2.322,-0.184
2.324,-0.155658857942114
2.326,-0.129
2.328,-0.112300491341789
2.33,-0.102522462562715
2.332,-0.093799310614784
2.334,-0.0804779678558527
2.336,-0.0618166809782733
2.338,-0.0419850110088955
2.34,-0.0252532012974333
2.342,-0.013295874284988
2.344,-0.00519203150404735
2.346,9.21785958835075e-05
2.348,0.00357365292416462
2.35,0.00587933164404619
2.352,0.00724619817266858
2.354,0.00789428128603703
2.356,0.00804360976015678
2.358,0.00791331043088433
2.36,0.0077017655106561
2.362,0.00758661258848853
2.364,0.00774458731324928
2.366,0.00835242533380609
2.368,0.00958686229902661
2.37,0.0116246338577786
2.372,0.0146303858013305
2.374,0.0184906971961728
2.376,0.0228140803840169
2.378,0.0271969578489757
2.38,0.0312357520751616
2.382,0.0345394846130014
2.384,0.0370069555381451
2.386,0.0388267434514659
2.388,0.0402000260201512
2.39,0.041327980911388
2.392,0.0424117857923639
2.394,0.0436443578015284
2.396,0.0450286219163644
2.398,0.046377510953388
2.4,0.0474956972003777
2.402,0.048187852945112
2.404,0.0482586504753694
2.406,0.0475269495272602
2.408,0.0461379211485282
2.41,0.0411518258616485
2.412,0.0406624157603768
2.414,0.0408442840968347
2.416,0.0422312838892908
2.418,0.0449472915677392
2.42,0.0487062069739002
2.422,0.0532041048804381
2.424,0.0581370600600177
2.426,0.0632011472853033
2.428,0.0680924413289598
2.43,0.0726262284513464
2.432,0.0770946408636027
2.434,0.0819090222645631
2.436,0.0874116897941546
2.438,0.0936688543566753
2.44,0.100592560149456
2.442,0.107754290777582
2.444,0.114739317087837
2.446,0.121528619486024
2.448,0.1282021057677
2.45,0.134839683728426
2.452,0.141544980766163
2.454,0.148516502688484
2.456,0.155960048623785
2.458,0.163703613224183
2.46,0.171197386665509
2.462,0.17799970184897
2.464,0.184167167703589
2.466,0.189903481774351
2.468,0.195930292613536
2.47,0.203116176035722
2.472,0.210868132484546
2.474,0.218222138658655
2.476,0.224826972365251
2.478,0.232508355234407
2.48,0.243387245086358
2.482,0.25835206727195
2.484,0.273418856340558
2.486,0.28449862715913
2.488,0.291951335033954
2.49,0.297172465743345
2.492,0.301217691118276
2.494,0.304090245751575
2.496,0.305531097834643
2.498,0.305304952963006
2.5,0.3036609855434
2.502,0.301148364342642
2.504,0.298278504047972
2.506,0.295541685734192
2.508,0.292942117390088
2.51,0.289997933918435
2.512,0.286230175091598
2.514,0.281712765768658
2.516,0.277072698134865
2.518,0.272965194364987
2.52,0.270049668141287
2.522,0.268932597653459
2.524,0.268998753254661
2.526,0.268411197461521
2.528,0.265287243878265
2.53,0.257913688960476
2.532,0.244901846497338
2.534,0.22843619218929
2.536,0.214044543164717
2.538,0.202293362769607
2.54,0.188841375341624
2.542,0.173923786450173
2.544,0.162384749595455
2.546,0.154907413347745
2.548,0.147805272091063
2.55,0.137201835244808
2.552,0.119379247889102
2.554,0.0947338504138681
2.556,0.0690644690850241
2.558,0.0463001411494499
2.56,0.0279452617774088
2.562,0.0152318201808675
2.564,0.0038739249623489
2.566,-0.0138593653166956
2.568,-0.0413289993208593
2.57,-0.0574714316757184
2.572,-0.0350979151373608
2.574,0.0404788485779968
2.576,0.134570751293515
2.578,0.212637460658174
2.58,0.287849023672617
2.582,0.385294787578302
2.584,0.518314083859603
2.586,0.65307774375221
2.588,0.743811550163786
2.59,0.744732420885128
2.592,0.633814197202687
2.594,0.484062091314953
2.596,0.371924959080982
2.598,0.292344828889466
2.6,0.219869556846756
2.602,0.129046999059204
2.604,0.00673108029878988
2.606,-0.111
2.608,-0.18597579904298
2.61,-0.22088117525967
2.612,-0.236324156718392
2.614,-0.23
2.616,-0.219658787808854
2.618,-0.2052117331862
2.62,-0.184
2.622,-0.155658857942114
2.624,-0.129
2.626,-0.112300491341789
2.628,-0.102522462562715
2.63,-0.093799310614784
2.632,-0.0804779678558527
2.634,-0.0618166809782733
2.636,-0.0419850110088955
2.638,-0.0252532012974333
2.64,-0.013295874284988
2.642,-0.00519203150404735
2.644,9.21785958835075e-05
2.646,0.00357365292416462
2.648,0.00587933164404619
2.65,0.00724619817266858
2.652,0.00789428128603703
2.654,0.00804360976015678
2.656,0.00791331043088433
2.658,0.0077017655106561
2.66,0.00758661258848853
2.662,0.00774458731324928
2.664,0.00835242533380609
2.666,0.00958686229902661
2.668,0.0116246338577786
2.67,0.0146303858013305
2.672,0.0184906971961728
2.674,0.0228140803840169
2.676,0.0271969578489757
2.678,0.0312357520751616
2.68,0.0345394846130014
2.682,0.0370069555381451
2.684,0.0388267434514659
2.686,0.0402000260201512
2.688,0.041327980911388
2.69,0.0424117857923639
2.692,0.0436443578015284
2.694,0.0450286219163644
2.696,0.046377510953388
2.698,0.0474956972003777
2.7,0.048187852945112
2.702,0.0482586504753694
2.704,0.0475269495272602
2.706,0.0461379211485282
2.708,0.0411518258616485
2.71,0.0406624157603768
2.712,0.0408442840968347
2.714,0.0422312838892908
2.716,0.0449472915677392
2.718,0.0487062069739002
2.72,0.0532041048804381
2.722,0.0581370600600177
2.724,0.0632011472853033
2.726,0.0680924413289598
2.728,0.0726262284513464
2.73,0.0770946408636027
2.732,0.0819090222645631
2.734,0.0874116897941546
2.736,0.0936688543566753
2.738,0.100592560149456
2.74,0.107754290777582
2.742,0.114739317087837
2.744,0.121528619486024
2.746,0.1282021057677
2.748,0.134839683728426
2.75,0.141544980766163
2.752,0.148516502688484
2.754,0.155960048623785
2.756,0.163703613224183
2.758,0.171197386665509
2.76,0.17799970184897
2.762,0.184167167703589
2.764,0.189903481774351
2.766,0.195930292613536
2.768,0.203116176035722
2.77,0.210868132484546
2.772,0.218222138658655
2.774,0.224826972365251
2.776,0.232508355234407
2.778,0.243387245086358
2.78,0.25835206727195
2.782,0.273418856340558
2.784,0.28449862715913
2.786,0.291951335033954
2.788,0.297172465743345
2.79,0.301217691118276
2.792,0.304090245751575
2.794,0.305531097834643
2.796,0.305304952963006
2.798,0.3036609855434
2.8,0.301148364342642
2.802,0.298278504047972
2.804,0.295541685734192
2.806,0.292942117390088
2.808,0.289997933918435
2.81,0.286230175091598
2.812,0.281712765768658
2.814,0.277072698134865
2.816,0.272965194364987
2.818,0.270049668141287
2.82,0.268932597653459
2.822,0.268998753254661
2.824,0.268411197461521
2.826,0.265287243878265
2.828,0.257913688960476
2.83,0.244901846497338
2.832,0.22843619218929
2.834,0.214044543164717
2.836,0.202293362769607
2.838,0.188841375341624
2.84,0.173923786450173
2.842,0.162384749595455
2.844,0.154907413347745
2.846,0.147805272091063
2.848,0.137201835244808
2.85,0.119379247889102
2.852,0.0947338504138681
2.854,0.0690644690850241
2.856,0.0463001411494499
2.858,0.0279452617774088
2.86,0.0152318201808675
2.862,0.0038739249623489
2.864,-0.0138593653166956
2.866,-0.0413289993208593
2.868,-0.0574714316757184
2.87,-0.0350979151373608
2.872,0.0404788485779968
2.874,0.134570751293515
2.876,0.212637460658174
2.878,0.287849023672617
2.88,0.385294787578302
2.882,0.518314083859603
2.884,0.65307774375221
2.886,0.743811550163786
2.888,0.744732420885128
2.89,0.633814197202687
2.892,0.484062091314953
2.894,0.371924959080982
2.896,0.292344828889466
2.898,0.219869556846756
2.9,0.129046999059204
2.902,0.00673108029878988
2.904,-0.111
2.906,-0.18597579904298
2.908,-0.22088117525967
2.91,-0.236324156718392
2.912,-0.23
2.914,-0.219658787808854
2.916,-0.2052117331862
2.918,-0.184
2.92,-0.155658857942114
2.922,-0.129
2.924,-0.112300491341789
2.926,-0.102522462562715
2.928,-0.093799310614784
2.93,-0.0804779678558527
2.932,-0.0618166809782733
2.934,-0.0419850110088955
2.936,-0.0252532012974333
2.938,-0.013295874284988
2.94,-0.00519203150404735
2.942,9.21785958835075e-05
2.944,0.00357365292416462
2.946,0.00587933164404619
2.948,0.00724619817266858
2.95,0.00789428128603703
2.952,0.00804360976015678
2.954,0.00791331043088433
2.956,0.0077017655106561
2.958,0.00758661258848853
2.96,0.00774458731324928
2.962,0.00835242533380609
2.964,0.00958686229902661
2.966,0.0116246338577786
2.968,0.0146303858013305
2.97,0.0184906971961728
2.972,0.0228140803840169
2.974,0.0271969578489757
2.976,0.0312357520751616
2.978,0.0345394846130014
2.98,0.0370069555381451
2.982,0.0388267434514659
2.984,0.0402000260201512
2.986,0.041327980911388
2.988,0.0424117857923639
2.99,0.0436443578015284
2.992,0.0450286219163644
2.994,0.046377510953388
2.996,0.0474956972003777
2.998,0.048187852945112
3,0.0482586504753694
3.002,0.0475269495272602
3.004,0.0461379211485282
3.006,0.0411518258616485
3.008,0.0406624157603768
3.01,0.0408442840968347
3.012,0.0422312838892908
3.014,0.0449472915677392
3.016,0.0487062069739002
3.018,0.0532041048804381
3.02,0.0581370600600177
3.022,0.0632011472853033
3.024,0.0680924413289598
3.026,0.0726262284513464
3.028,0.0770946408636027
3.03,0.0819090222645631
3.032,0.0874116897941546
3.034,0.0936688543566753
3.036,0.100592560149456
3.038,0.107754290777582
3.04,0.114739317087837
3.042,0.121528619486024
3.044,0.1282021057677
3.046,0.134839683728426
3.048,0.141544980766163
3.05,0.148516502688484
3.052,0.155960048623785
3.054,0.163703613224183
3.056,0.171197386665509
3.058,0.17799970184897
3.06,0.184167167703589
3.062,0.189903481774351
3.064,0.195930292613536
3.066,0.203116176035722
3.068,0.210868132484546
3.07,0.218222138658655
3.072,0.224826972365251
3.074,0.232508355234407
3.076,0.243387245086358
3.078,0.25835206727195
3.08,0.273418856340558
3.082,0.28449862715913
3.084,0.291951335033954
3.086,0.297172465743345
3.088,0.301217691118276
3.09,0.304090245751575
3.092,0.305531097834643
3.094,0.305304952963006
3.096,0.3036609855434
3.098,0.301148364342642
3.1,0.298278504047972
3.102,0.295541685734192
3.104,0.292942117390088
3.106,0.289997933918435
3.108,0.286230175091598
3.11,0.281712765768658
3.112,0.277072698134865
3.114,0.272965194364987
3.116,0.270049668141287
3.118,0.268932597653459
3.12,0.268998753254661
3.122,0.268411197461521
3.124,0.265287243878265
3.126,0.257913688960476
3.128,0.244901846497338
3.13,0.22843619218929
3.132,0.214044543164717
3.134,0.202293362769607
3.136,0.188841375341624
3.138,0.173923786450173
3.14,0.162384749595455
3.142,0.154907413347745
3.144,0.147805272091063
3.146,0.137201835244808
3.148,0.119379247889102
3.15,0.0947338504138681
3.152,0.0690644690850241
3.154,0.0463001411494499
3.156,0.0279452617774088
3.158,0.0152318201808675
3.16,0.0038739249623489
3.162,-0.0138593653166956
3.164,-0.0413289993208593
3.166,-0.0574714316757184
3.168,-0.0350979151373608
3.17,0.0404788485779968
3.172,0.134570751293515
3.174,0.212637460658174
3.176,0.287849023672617
3.178,0.385294787578302
3.18,0.518314083859603
3.182,0.65307774375221
3.184,0.743811550163786
3.186,0.744732420885128
3.188,0.633814197202687
3.19,0.484062091314953
3.192,0.371924959080982
3.194,0.292344828889466
3.196,0.219869556846756
3.198,0.129046999059204
3.2,0.00673108029878988
3.202,-0.111
3.204,-0.18597579904298
3.206,-0.22088117525967
3.208,-0.236324156718392
3.21,-0.23
3.212,-0.219658787808854
3.214,-0.2052117331862
3.216,-0.184
3.218,-0.155658857942114
3.22,-0.129
3.222,-0.112300491341789
3.224,-0.102522462562715
3.226,-0.093799310614784
3.228,-0.0804779678558527
3.23,-0.0618166809782733
3.232,-0.0419850110088955
3.234,-0.0252532012974333
3.236,-0.013295874284988
3.238,-0.00519203150404735
3.24,9.21785958835075e-05
3.242,0.00357365292416462
3.244,0.00587933164404619
3.246,0.00724619817266858
3.248,0.00789428128603703
3.25,0.00804360976015678
3.252,0.00791331043088433
3.254,0.0077017655106561
3.256,0.00758661258848853
3.258,0.00774458731324928
3.26,0.00835242533380609
3.262,0.00958686229902661
3.264,0.0116246338577786
3.266,0.0146303858013305
3.268,0.0184906971961728
3.27,0.0228140803840169
3.272,0.0271969578489757
3.274,0.0312357520751616
3.276,0.0345394846130014
3.278,0.0370069555381451
3.28,0.0388267434514659
3.282,0.0402000260201512
3.284,0.041327980911388
3.286,0.0424117857923639
3.288,0.0436443578015284
3.29,0.0450286219163644
3.292,0.046377510953388
3.294,0.0474956972003777
3.296,0.048187852945112
3.298,0.0482586504753694
3.3,0.0475269495272602
3.302,0.0461379211485282
3.304,0.0411518258616485
3.306,0.0406624157603768
3.308,0.0408442840968347
3.31,0.0422312838892908
3.312,0.0449472915677392
3.314,0.0487062069739002
3.316,0.0532041048804381
3.318,0.0581370600600177
3.32,0.0632011472853033
3.322,0.0680924413289598
3.324,0.0726262284513464
3.326,0.0770946408636027
3.328,0.0819090222645631
3.33,0.0874116897941546
3.332,0.0936688543566753
3.334,0.100592560149456
3.336,0.107754290777582
3.338,0.114739317087837
3.34,0.121528619486024
3.342,0.1282021057677
3.344,0.134839683728426
3.346,0.141544980766163
3.348,0.148516502688484
3.35,0.155960048623785
3.352,0.163703613224183
3.354,0.171197386665509
3.356,0.17799970184897
3.358,0.184167167703589
3.36,0.189903481774351
3.362,0.195930292613536
3.364,0.203116176035722
3.366,0.210868132484546
3.368,0.218222138658655
3.37,0.224826972365251
3.372,0.232508355234407
3.374,0.243387245086358
3.376,0.25835206727195
3.378,0.273418856340558
3.38,0.28449862715913
3.382,0.291951335033954
3.384,0.297172465743345
3.386,0.301217691118276
3.388,0.304090245751575
3.39,0.305531097834643
3.392,0.305304952963006
3.394,0.3036609855434
3.396,0.301148364342642
3.398,0.298278504047972
3.4,0.295541685734192
3.402,0.292942117390088
3.404,0.289997933918435
3.406,0.286230175091598
3.408,0.281712765768658
3.41,0.277072698134865
3.412,0.272965194364987
3.414,0.270049668141287
3.416,0.268932597653459
3.418,0.268998753254661
3.42,0.268411197461521
3.422,0.265287243878265
3.424,0.257913688960476
3.426,0.244901846497338
3.428,0.22843619218929
3.43,0.214044543164717
3.432,0.202293362769607
3.434,0.188841375341624
3.436,0.173923786450173
3.438,0.162384749595455
3.44,0.154907413347745
3.442,0.147805272091063
3.444,0.137201835244808
3.446,0.119379247889102
3.448,0.0947338504138681
3.45,0.0690644690850241
3.452,0.0463001411494499
3.454,0.0279452617774088
3.456,0.0152318201808675
3.458,0.0038739249623489
3.46,-0.0138593653166956
3.462,-0.0413289993208593
3.464,-0.0574714316757184
3.466,-0.0350979151373608
3.468,0.0404788485779968
3.47,0.134570751293515
3.472,0.212637460658174
3.474,0.287849023672617
3.476,0.385294787578302
3.478,0.518314083859603
3.48,0.65307774375221
3.482,0.743811550163786
3.484,0.744732420885128
3.486,0.633814197202687
3.488,0.484062091314953
3.49,0.371924959080982
3.492,0.292344828889466
3.494,0.219869556846756
3.496,0.129046999059204
3.498,0.00673108029878988
3.5,-0.111
3.502,-0.18597579904298
3.504,-0.22088117525967
3.506,-0.236324156718392
3.508,-0.23
3.51,-0.219658787808854
3.512,-0.2052117331862
3.514,-0.184
3.516,-0.155658857942114
3.518,-0.129
3.52,-0.112300491341789
3.522,-0.102522462562715
3.524,-0.093799310614784
3.526,-0.0804779678558527
3.528,-0.0618166809782733
3.53,-0.0419850110088955
3.532,-0.0252532012974333
3.534,-0.013295874284988
3.536,-0.00519203150404735
3.538,9.21785958835075e-05
3.54,0.00357365292416462
3.542,0.00587933164404619
3.544,0.00724619817266858
3.546,0.00789428128603703
3.548,0.00804360976015678
3.55,0.00791331043088433
3.552,0.0077017655106561
3.554,0.00758661258848853
3.556,0.00774458731324928
3.558,0.00835242533380609
3.56,0.00958686229902661
3.562,0.0116246338577786
3.564,0.0146303858013305
3.566,0.0184906971961728
3.568,0.0228140803840169
3.57,0.0271969578489757
3.572,0.0312357520751616
3.574,0.0345394846130014
3.576,0.0370069555381451
3.578,0.0388267434514659
3.58,0.0402000260201512
3.582,0.041327980911388
3.584,0.0424117857923639
3.586,0.0436443578015284
3.588,0.0450286219163644
3.59,0.046377510953388
3.592,0.0474956972003777
3.594,0.048187852945112
3.596,0.0482586504753694
3.598,0.0475269495272602
3.6,0.0461379211485282
3.602,0.0411518258616485
3.604,0.0406624157603768
3.606,0.0408442840968347
3.608,0.0422312838892908
3.61,0.0449472915677392
3.612,0.0487062069739002
3.614,0.0532041048804381
3.616,0.0581370600600177
3.618,0.0632011472853033
3.62,0.0680924413289598
3.622,0.0726262284513464
3.624,0.0770946408636027
3.626,0.0819090222645631
3.628,0.0874116897941546
3.63,0.0936688543566753
3.632,0.100592560149456
3.634,0.107754290777582
3.636,0.114739317087837
3.638,0.121528619486024
3.64,0.1282021057677
3.642,0.134839683728426
3.644,0.141544980766163
3.646,0.148516502688484
3.648,0.155960048623785
3.65,0.163703613224183
3.652,0.171197386665509
3.654,0.17799970184897
3.656,0.184167167703589
3.658,0.189903481774351
3.66,0.195930292613536
3.662,0.203116176035722
3.664,0.210868132484546
3.666,0.218222138658655
3.668,0.224826972365251
3.67,0.232508355234407
3.672,0.243387245086358
3.674,0.25835206727195
3.676,0.273418856340558
3.678,0.28449862715913
3.68,0.291951335033954
3.682,0.297172465743345
3.684,0.301217691118276
3.686,0.304090245751575
3.688,0.305531097834643
3.69,0.305304952963006
3.692,0.3036609855434
3.694,0.301148364342642
3.696,0.298278504047972
3.698,0.295541685734192
3.7,0.292942117390088
3.702,0.289997933918435
3.704,0.286230175091598
3.706,0.281712765768658
3.708,0.277072698134865
3.71,0.272965194364987
3.712,0.270049668141287
3.714,0.268932597653459
3.716,0.268998753254661
3.718,0.268411197461521
3.72,0.265287243878265
3.722,0.257913688960476
3.724,0.244901846497338
3.726,0.22843619218929
3.728,0.214044543164717
3.73,0.202293362769607
3.732,0.188841375341624
3.734,0.173923786450173
3.736,0.162384749595455
3.738,0.154907413347745
3.74,0.147805272091063
3.742,0.137201835244808
3.744,0.119379247889102
3.746,0.0947338504138681
3.748,0.0690644690850241
3.75,0.0463001411494499
3.752,0.0279452617774088
3.754,0.0152318201808675
3.756,0.0038739249623489
3.758,-0.0138593653166956
3.76,-0.0413289993208593
3.762,-0.0574714316757184
3.764,-0.0350979151373608
3.766,0.0404788485779968
3.768,0.134570751293515
3.77,0.212637460658174
3.772,0.287849023672617
3.774,0.385294787578302
3.776,0.518314083859603
3.778,0.65307774375221
3.78,0.743811550163786
3.782,0.744732420885128
3.784,0.633814197202687
3.786,0.484062091314953
3.788,0.371924959080982
3.79,0.292344828889466
3.792,0.219869556846756
3.794,0.129046999059204
3.796,0.00673108029878988
3.798,-0.111
3.8,-0.18597579904298
3.802,-0.22088117525967
3.804,-0.236324156718392
3.806,-0.23
3.808,-0.219658787808854
3.81,-0.2052117331862
3.812,-0.184
3.814,-0.155658857942114
3.816,-0.129
3.818,-0.112300491341789
3.82,-0.102522462562715
3.822,-0.093799310614784
3.824,-0.0804779678558527
3.826,-0.0618166809782733
3.828,-0.0419850110088955
3.83,-0.0252532012974333
3.832,-0.013295874284988
3.834,-0.00519203150404735
3.836,9.21785958835075e-05
3.838,0.00357365292416462
3.84,0.00587933164404619
3.842,0.00724619817266858
3.844,0.00789428128603703
3.846,0.00804360976015678
3.848,0.00791331043088433
3.85,0.0077017655106561
3.852,0.00758661258848853
3.854,0.00774458731324928
3.856,0.00835242533380609
3.858,0.00958686229902661
3.86,0.0116246338577786
3.862,0.0146303858013305
3.864,0.0184906971961728
3.866,0.0228140803840169
3.868,0.0271969578489757
3.87,0.0312357520751616
3.872,0.0345394846130014
3.874,0.0370069555381451
3.876,0.0388267434514659
3.878,0.0402000260201512
3.88,0.041327980911388
3.882,0.0424117857923639
3.884,0.0436443578015284
3.886,0.0450286219163644
3.888,0.046377510953388
3.89,0.0474956972003777
3.892,0.048187852945112
3.894,0.0482586504753694
3.896,0.0475269495272602
3.898,0.0461379211485282
3.9,0.0445630476985509
3.902,0.0398767771481348
3.904,0.0401728615910361
3.906,0.0416080692103207
3.908,0.0443062764359828
3.91,0.0479813831097426
3.912,0.0523294640042647
3.914,0.0570465938922135
3.916,0.0618288475462536
3.918,0.0663722997390497
3.92,0.0704922367309612
3.922,0.0744807907331276
3.924,0.0787493054443832
3.926,0.0837091245635623
3.928,0.0897025652305922
3.93,0.09671069820171
3.932,0.104305007082003
3.934,0.111971835328498
3.936,0.119296453787975
3.938,0.126259842866239
3.94,0.132941910358849
3.942,0.139446283663765
3.944,0.145971468588561
3.946,0.152739690543212
3.948,0.159956748656116
3.95,0.167450637579387
3.952,0.174796116495812
3.954,0.18204979433441
3.956,0.189392849031157
3.958,0.19702897813104
3.96,0.205308806441347
3.962,0.213616814796703
3.964,0.220988979895754
3.966,0.227088514314719
3.968,0.234073139371088
3.97,0.244395812572507
3.972,0.258959394038842
3.974,0.273779918319467
3.976,0.28476840028133
3.978,0.292288166863151
3.98,0.29781225138916
3.982,0.302473873236245
3.984,0.306279638629665
3.986,0.30897051576082
3.988,0.310287472821111
3.99,0.309933723922358
3.992,0.307912477536465
3.994,0.304711410946543
3.996,0.30084193883983
3.998,0.29679434229113
4,0.292572829289228
4.002,0.287719573218929
4.004,0.282308498939313
4.006,0.276966416396172
4.008,0.272344356256785
4.01,0.269097540695924
4.012,0.267832265663825
4.014,0.267933301513649
4.016,0.267563710762022
4.018,0.264833438193546
4.02,0.257859797412448
4.022,0.245084619356556
4.024,0.228685010906683
4.026,0.214188789191216
4.028,0.202162417556143
4.03,0.18827951881055
4.032,0.173117963366576
4.034,0.161864569567156
4.036,0.155217384453988
4.038,0.149489902411092
4.04,0.140805632857868
4.042,0.125446720874436
4.044,0.103343931737456
4.046,0.0784337912597842
4.048,0.054179761575036
4.05,0.0320862378534744
4.052,0.0151444079690067
4.054,0.00610517517191697
4.056,-0.00100320331440279
4.058,-0.0156668780240343
4.06,-0.041323111060507
4.062,-0.0569083570493972
4.064,-0.0352006903583774
4.066,0.0392502902298889
4.068,0.132519579472115
4.07,0.210100023405697
4.072,0.285161669031279
4.074,0.382784998473455
4.076,0.516105445528786
4.078,0.651089943745147
4.08,0.74195541091334
4.082,0.74291876482416
4.084,0.63195752369348
4.086,0.482161469096461
4.088,0.37006402626883
4.09,0.290610900528698
4.092,0.218349947982418
4.094,0.127829024736342
4.096,0.00590205556244827
4.098,-0.111390183416912
4.1,-0.186026942656098
4.102,-0.22843984822964
4.104,-0.236324156718392
4.106,-0.23
4.108,-0.219658787808854
4.11,-0.2052117331862
4.112,-0.184
4.114,-0.155658857942114
4.116,-0.129
4.118,-0.112300491341789
4.12,-0.102522462562715
4.122,-0.093799310614784
4.124,-0.0804779678558527
4.126,-0.0618166809782733
4.128,-0.0419850110088955
4.13,-0.0252532012974333
4.132,-0.013295874284988
4.134,-0.00519203150404735
4.136,9.21785958835075e-05
4.138,0.00357365292416462
4.14,0.00587933164404619
4.142,0.00724619817266858
4.144,0.00789428128603703
4.146,0.00804360976015678
4.148,0.00791331043088433
4.15,0.0077017655106561
4.152,0.00758661258848853
4.154,0.00774458731324928
4.156,0.00835242533380609
4.158,0.00958686229902661
4.16,0.0116246338577786
4.162,0.0146303858013305
4.164,0.0184906971961728
4.166,0.0228140803840169
4.168,0.0271969578489757
4.17,0.0312357520751616
4.172,0.0345394846130014
4.174,0.0370069555381451
4.176,0.0388267434514659
4.178,0.0402000260201512
4.18,0.041327980911388
4.182,0.0424117857923639
4.184,0.0436443578015284
4.186,0.0450286219163644
4.188,0.046377510953388
4.19,0.0474956972003777
4.192,0.048187852945112
4.194,0.0482586504753694
4.196,0.0475269495272602
4.198,0.0461379211485282
4.2,0.0445630476985509
4.202,0.0398767771481348
4.204,0.0401728615910361
4.206,0.0416080692103207
4.208,0.0443062764359828
4.21,0.0479813831097426
4.212,0.0523294640042647
4.214,0.0570465938922135
4.216,0.0618288475462536
4.218,0.0663722997390497
4.22,0.0704922367309612
4.222,0.0744807907331276
4.224,0.0787493054443832
4.226,0.0837091245635623
4.228,0.0897025652305922
4.23,0.09671069820171
4.232,0.104305007082003
4.234,0.111971835328498
4.236,0.119296453787975
4.238,0.126259842866239
4.24,0.132941910358849
4.242,0.139446283663765
4.244,0.145971468588561
4.246,0.152739690543212
4.248,0.159956748656116
4.25,0.167450637579387
4.252,0.174796116495812
4.254,0.18204979433441
4.256,0.189392849031157
4.258,0.19702897813104
4.26,0.205308806441347
4.262,0.213616814796703
4.264,0.220988979895754
4.266,0.227088514314719
4.268,0.234073139371088
4.27,0.244395812572507
4.272,0.258959394038842
4.274,0.273779918319467
4.276,0.28476840028133
4.278,0.292288166863151
4.28,0.29781225138916
4.282,0.302473873236245
4.284,0.306279638629665
4.286,0.30897051576082
4.288,0.310287472821111
4.29,0.309933723922358
4.292,0.307912477536465
4.294,0.304711410946543
4.296,0.30084193883983
4.298,0.29679434229113
4.3,0.292572829289228
4.302,0.287719573218929
4.304,0.282308498939313
4.306,0.276966416396172
4.308,0.272344356256785
4.31,0.269097540695924
4.312,0.267832265663825
4.314,0.267933301513649
4.316,0.267563710762022
4.318,0.264833438193546
4.32,0.257859797412448
4.322,0.245084619356556
4.324,0.228685010906683
4.326,0.214188789191216
4.328,0.202162417556143
4.33,0.18827951881055
4.332,0.173117963366576
4.334,0.161864569567156
4.336,0.155217384453988
4.338,0.149489902411092
4.34,0.140805632857868
4.342,0.125446720874436
4.344,0.103343931737456
4.346,0.0784337912597842
4.348,0.054179761575036
4.35,0.0320862378534744
4.352,0.0151444079690067
4.354,0.00610517517191697
4.356,-0.00100320331440279
4.358,-0.0156668780240343
4.36,-0.041323111060507
4.362,-0.0569083570493972
4.364,-0.0352006903583774
4.366,0.0392502902298889
4.368,0.132519579472115
4.37,0.210100023405697
4.372,0.285161669031279
4.374,0.382784998473455
4.376,0.516105445528786
4.378,0.651089943745147
4.38,0.74195541091334
4.382,0.74291876482416
4.384,0.63195752369348
4.386,0.482161469096461
4.388,0.37006402626883
4.39,0.290610900528698
4.392,0.218349947982418
4.394,0.127829024736342
4.396,0.00590205556244827
4.398,-0.111390183416912
4.4,-0.186026942656098
4.402,-0.22843984822964
4.404,-0.236324156718392
4.406,-0.23
4.408,-0.219658787808854
4.41,-0.2052117331862
4.412,-0.184
4.414,-0.155658857942114
4.416,-0.129
4.418,-0.112300491341789
4.42,-0.102522462562715
4.422,-0.093799310614784
4.424,-0.0804779678558527
4.426,-0.0618166809782733
4.428,-0.0419850110088955
4.43,-0.0252532012974333
4.432,-0.013295874284988
4.434,-0.00519203150404735
4.436,9.21785958835075e-05
4.438,0.00357365292416462
4.44,0.00587933164404619
4.442,0.00724619817266858
4.444,0.00789428128603703
4.446,0.00804360976015678
4.448,0.00791331043088433
4.45,0.0077017655106561
4.452,0.00758661258848853
4.454,0.00774458731324928
4.456,0.00835242533380609
4.458,0.00958686229902661
4.46,0.0116246338577786
4.462,0.0146303858013305
4.464,0.0184906971961728
4.466,0.0228140803840169
4.468,0.0271969578489757
4.47,0.0312357520751616
4.472,0.0345394846130014
4.474,0.0370069555381451
4.476,0.0388267434514659
4.478,0.0402000260201512
4.48,0.041327980911388
4.482,0.0424117857923639
4.484,0.0436443578015284
4.486,0.0450286219163644
4.488,0.046377510953388
4.49,0.0474956972003777
4.492,0.048187852945112
4.494,0.0482586504753694
4.496,0.0475269495272602
4.498,0.0461379211485282
4.5,0.0445630476985509
4.502,0.0398767771481348
4.504,0.0401728615910361
4.506,0.0416080692103207
4.508,0.0443062764359828
4.51,0.0479813831097426
4.512,0.0523294640042647
4.514,0.0570465938922135
4.516,0.0618288475462536
4.518,0.0663722997390497
4.52,0.0704922367309612
4.522,0.0744807907331276
4.524,0.0787493054443832
4.526,0.0837091245635623
4.528,0.0897025652305922
4.53,0.09671069820171
4.532,0.104305007082003
4.534,0.111971835328498
4.536,0.119296453787975
4.538,0.126259842866239
4.54,0.132941910358849
4.542,0.139446283663765
4.544,0.145971468588561
4.546,0.152739690543212
4.548,0.159956748656116
4.55,0.167450637579387
4.552,0.174796116495812
4.554,0.18204979433441
4.556,0.189392849031157
4.558,0.19702897813104
4.56,0.205308806441347
4.562,0.213616814796703
4.564,0.220988979895754
4.566,0.227088514314719
4.568,0.234073139371088
4.57,0.244395812572507
4.572,0.258959394038842
4.574,0.273779918319467
4.576,0.28476840028133
4.578,0.292288166863151
4.58,0.29781225138916
4.582,0.302473873236245
4.584,0.306279638629665
4.586,0.30897051576082
4.588,0.310287472821111
4.59,0.309933723922358
4.592,0.307912477536465
4.594,0.304711410946543
4.596,0.30084193883983
4.598,0.29679434229113
4.6,0.292572829289228
4.602,0.287719573218929
4.604,0.282308498939313
4.606,0.276966416396172
4.608,0.272344356256785
4.61,0.269097540695924
4.612,0.267832265663825
4.614,0.267933301513649
4.616,0.267563710762022
4.618,0.264833438193546
4.62,0.257859797412448
4.622,0.245084619356556
4.624,0.228685010906683
4.626,0.214188789191216
4.628,0.202162417556143
4.63,0.18827951881055
4.632,0.173117963366576
4.634,0.161864569567156
4.636,0.155217384453988
4.638,0.149489902411092
4.64,0.140805632857868
4.642,0.125446720874436
4.644,0.103343931737456
4.646,0.0784337912597842
4.648,0.054179761575036
4.65,0.0320862378534744
4.652,0.0151444079690067
4.654,0.00610517517191697
4.656,-0.00100320331440279
4.658,-0.0156668780240343
4.66,-0.041323111060507
4.662,-0.0569083570493972
4.664,-0.0352006903583774
4.666,0.0392502902298889
4.668,0.132519579472115
4.67,0.210100023405697
4.672,0.285161669031279
4.674,0.382784998473455
4.676,0.516105445528786
4.678,0.651089943745147
4.68,0.74195541091334
4.682,0.74291876482416
4.684,0.63195752369348
4.686,0.482161469096461
4.688,0.37006402626883
4.69,0.290610900528698
4.692,0.218349947982418
4.694,0.127829024736342
4.696,0.00590205556244827
4.698,-0.111390183416912
4.7,-0.186026942656098
4.702,-0.22843984822964
4.704,-0.236324156718392
4.706,-0.23
4.708,-0.219658787808854
4.71,-0.2052117331862
4.712,-0.184
4.714,-0.155658857942114
4.716,-0.129
4.718,-0.112300491341789
4.72,-0.102522462562715
4.722,-0.093799310614784
4.724,-0.0804779678558527
4.726,-0.0618166809782733
4.728,-0.0419850110088955
4.73,-0.0252532012974333
4.732,-0.013295874284988
4.734,-0.00519203150404735
4.736,9.21785958835075e-05
4.738,0.00357365292416462
4.74,0.00587933164404619
4.742,0.00724619817266858
4.744,0.00789428128603703
4.746,0.00804360976015678
4.748,0.00791331043088433
4.75,0.0077017655106561
4.752,0.00758661258848853
4.754,0.00774458731324928
4.756,0.00835242533380609
4.758,0.00958686229902661
4.76,0.0116246338577786
4.762,0.0146303858013305
4.764,0.0184906971961728
4.766,0.0228140803840169
4.768,0.0271969578489757
4.77,0.0312357520751616
4.772,0.0345394846130014
4.774,0.0370069555381451
4.776,0.0388267434514659
4.778,0.0402000260201512
4.78,0.041327980911388
4.782,0.0424117857923639
4.784,0.0436443578015284
4.786,0.0450286219163644
4.788,0.046377510953388
4.79,0.0474956972003777
4.792,0.048187852945112
4.794,0.0482586504753694
4.796,0.0475269495272602
4.798,0.0461379211485282
4.8,0.0445630476985509
4.802,0.0398767771481348
4.804,0.0401728615910361
4.806,0.0416080692103207
4.808,0.0443062764359828
4.81,0.0479813831097426
4.812,0.0523294640042647
4.814,0.0570465938922135
4.816,0.0618288475462536
4.818,0.0663722997390497
4.82,0.0704922367309612
4.822,0.0744807907331276
4.824,0.0787493054443832
4.826,0.0837091245635623
4.828,0.0897025652305922
4.83,0.09671069820171
4.832,0.104305007082003
4.834,0.111971835328498
4.836,0.119296453787975
4.838,0.126259842866239
4.84,0.132941910358849
4.842,0.139446283663765
4.844,0.145971468588561
4.846,0.152739690543212
4.848,0.159956748656116
4.85,0.167450637579387
4.852,0.174796116495812
4.854,0.18204979433441
4.856,0.189392849031157
4.858,0.19702897813104
4.86,0.205308806441347
4.862,0.213616814796703
4.864,0.220988979895754
4.866,0.227088514314719
4.868,0.234073139371088
4.87,0.244395812572507
4.872,0.258959394038842
4.874,0.273779918319467
4.876,0.28476840028133
4.878,0.292288166863151
4.88,0.29781225138916
4.882,0.302473873236245
4.884,0.306279638629665
4.886,0.30897051576082
4.888,0.310287472821111
4.89,0.309933723922358
4.892,0.307912477536465
4.894,0.304711410946543
4.896,0.30084193883983
4.898,0.29679434229113
4.9,0.292572829289228
4.902,0.287719573218929
4.904,0.282308498939313
4.906,0.276966416396172
4.908,0.272344356256785
4.91,0.269097540695924
4.912,0.267832265663825
4.914,0.267933301513649
4.916,0.267563710762022
4.918,0.264833438193546
4.92,0.257859797412448
4.922,0.245084619356556
4.924,0.228685010906683
4.926,0.214188789191216
4.928,0.202162417556143
4.93,0.18827951881055
4.932,0.173117963366576
4.934,0.161864569567156
4.936,0.155217384453988
4.938,0.149489902411092
4.94,0.140805632857868
4.942,0.125446720874436
4.944,0.103343931737456
4.946,0.0784337912597842
4.948,0.054179761575036
4.95,0.0320862378534744
4.952,0.0151444079690067
4.954,0.00610517517191697
4.956,-0.00100320331440279
4.958,-0.0156668780240343
4.96,-0.041323111060507
4.962,-0.0569083570493972
4.964,-0.0352006903583774
4.966,0.0392502902298889
4.968,0.132519579472115
4.97,0.210100023405697
4.972,0.285161669031279
4.974,0.382784998473455
4.976,0.516105445528786
4.978,0.651089943745147
4.98,0.74195541091334
4.982,0.74291876482416
4.984,0.63195752369348
4.986,0.482161469096461
4.988,0.37006402626883
4.99,0.290610900528698
4.992,0.218349947982418
4.994,0.127829024736342
4.996,0.00590205556244827
4.998,-0.111390183416912
5,-0.186026942656098
5.002,-0.22843984822964
5.004,-0.236324156718392
5.006,-0.23
5.008,-0.219658787808854
5.01,-0.2052117331862
5.012,-0.184
5.014,-0.155658857942114
5.016,-0.129
5.018,-0.112300491341789
5.02,-0.102522462562715
5.022,-0.093799310614784
5.024,-0.0804779678558527
5.026,-0.0618166809782733
5.028,-0.0419850110088955
5.03,-0.0252532012974333
5.032,-0.013295874284988
5.034,-0.00519203150404735
5.036,9.21785958835075e-05
5.038,0.00357365292416462
5.04,0.00587933164404619
5.042,0.00724619817266858
5.044,0.00789428128603703
5.046,0.00804360976015678
5.048,0.00791331043088433
5.05,0.0077017655106561
5.052,0.00758661258848853
5.054,0.00774458731324928
5.056,0.00835242533380609
5.058,0.00958686229902661
5.06,0.0116246338577786
5.062,0.0146303858013305
5.064,0.0184906971961728
5.066,0.0228140803840169
5.068,0.0271969578489757
5.07,0.0312357520751616
5.072,0.0345394846130014
5.074,0.0370069555381451
5.076,0.0388267434514659
5.078,0.0402000260201512
5.08,0.041327980911388
5.082,0.0424117857923639
5.084,0.0436443578015284
5.086,0.0450286219163644
5.088,0.046377510953388
5.09,0.0474956972003777
5.092,0.048187852945112
5.094,0.0482586504753694
5.096,0.0475269495272602
5.098,0.0461379211485282
5.1,0.0445630476985509
5.102,0.0398767771481348
5.104,0.0401728615910361
5.106,0.0416080692103207
5.108,0.0443062764359828
5.11,0.0479813831097426
5.112,0.0523294640042647
5.114,0.0570465938922135
5.116,0.0618288475462536
5.118,0.0663722997390497
5.12,0.0704922367309612
5.122,0.0744807907331276
5.124,0.0787493054443832
5.126,0.0837091245635623
5.128,0.0897025652305922
5.13,0.09671069820171
5.132,0.104305007082003
5.134,0.111971835328498
5.136,0.119296453787975
5.138,0.126259842866239
5.14,0.132941910358849
5.142,0.139446283663765
5.144,0.145971468588561
5.146,0.152739690543212
5.148,0.159956748656116
5.15,0.167450637579387
5.152,0.174796116495812
5.154,0.18204979433441
5.156,0.189392849031157
5.158,0.19702897813104
5.16,0.205308806441347
5.162,0.213616814796703
5.164,0.220988979895754
5.166,0.227088514314719
5.168,0.234073139371088
5.17,0.244395812572507
5.172,0.258959394038842
5.174,0.273779918319467
5.176,0.28476840028133
5.178,0.292288166863151
5.18,0.29781225138916
5.182,0.302473873236245
5.184,0.306279638629665
5.186,0.30897051576082
5.188,0.310287472821111
5.19,0.309933723922358
5.192,0.307912477536465
5.194,0.304711410946543
5.196,0.30084193883983
5.198,0.29679434229113
5.2,0.292572829289228
5.202,0.287719573218929
5.204,0.282308498939313
5.206,0.276966416396172
5.208,0.272344356256785
5.21,0.269097540695924
5.212,0.267832265663825
5.214,0.267933301513649
5.216,0.267563710762022
5.218,0.264833438193546
5.22,0.257859797412448
5.222,0.245084619356556
5.224,0.228685010906683
5.226,0.214188789191216
5.228,0.202162417556143
5.23,0.18827951881055
5.232,0.173117963366576
5.234,0.161864569567156
5.236,0.155217384453988
5.238,0.149489902411092
5.24,0.140805632857868
5.242,0.125446720874436
5.244,0.103343931737456
5.246,0.0784337912597842
5.248,0.054179761575036
5.25,0.0320862378534744
5.252,0.0151444079690067
5.254,0.00610517517191697
5.256,-0.00100320331440279
5.258,-0.0156668780240343
5.26,-0.041323111060507
5.262,-0.0569083570493972
5.264,-0.0352006903583774
5.266,0.0392502902298889
5.268,0.132519579472115
5.27,0.210100023405697
5.272,0.285161669031279
5.274,0.382784998473455
5.276,0.516105445528786
5.278,0.651089943745147
5.28,0.74195541091334
5.282,0.74291876482416
5.284,0.63195752369348
5.286,0.482161469096461
5.288,0.37006402626883
5.29,0.290610900528698
5.292,0.218349947982418
5.294,0.127829024736342
5.296,0.00590205556244827
5.298,-0.111390183416912
5.3,-0.186026942656098
5.302,-0.22843984822964
5.304,-0.236324156718392
5.306,-0.23
5.308,-0.219658787808854
5.31,-0.2052117331862
5.312,-0.184
5.314,-0.155658857942114
5.316,-0.129
5.318,-0.112300491341789
5.32,-0.102522462562715
5.322,-0.093799310614784
5.324,-0.0804779678558527
5.326,-0.0618166809782733
5.328,-0.0419850110088955
5.33,-0.0252532012974333
5.332,-0.013295874284988
5.334,-0.00519203150404735
5.336,9.21785958835075e-05
5.338,0.00357365292416462
5.34,0.00587933164404619
5.342,0.00724619817266858
5.344,0.00789428128603703
5.346,0.00804360976015678
5.348,0.00791331043088433
5.35,0.0077017655106561
5.352,0.00758661258848853
5.354,0.00774458731324928
5.356,0.00835242533380609
5.358,0.00958686229902661
5.36,0.0116246338577786
5.362,0.0146303858013305
5.364,0.0184906971961728
5.366,0.0228140803840169
5.368,0.0271969578489757
5.37,0.0312357520751616
5.372,0.0345394846130014
5.374,0.0370069555381451
5.376,0.0388267434514659
5.378,0.0402000260201512
5.38,0.041327980911388
5.382,0.0424117857923639
5.384,0.0436443578015284
5.386,0.0450286219163644
5.388,0.046377510953388
5.39,0.0474956972003777
5.392,0.048187852945112
5.394,0.0482586504753694
5.396,0.0475269495272602
5.398,0.0461379211485282
5.4,0.0445630476985509
5.402,0.0398767771481348
5.404,0.0401728615910361
5.406,0.0416080692103207
5.408,0.0443062764359828
5.41,0.0479813831097426
5.412,0.0523294640042647
5.414,0.0570465938922135
5.416,0.0618288475462536
5.418,0.0663722997390497
5.42,0.0704922367309612
5.422,0.0744807907331276
5.424,0.0787493054443832
5.426,0.0837091245635623
5.428,0.0897025652305922
5.43,0.09671069820171
5.432,0.104305007082003
5.434,0.111971835328498
5.436,0.119296453787975
5.438,0.126259842866239
5.44,0.132941910358849
5.442,0.139446283663765
5.444,0.145971468588561
5.446,0.152739690543212
5.448,0.159956748656116
5.45,0.167450637579387
5.452,0.174796116495812
5.454,0.18204979433441
5.456,0.189392849031157
5.458,0.19702897813104
5.46,0.205308806441347
5.462,0.213616814796703
5.464,0.220988979895754
5.466,0.227088514314719
5.468,0.234073139371088
5.47,0.244395812572507
5.472,0.258959394038842
5.474,0.273779918319467
5.476,0.28476840028133
5.478,0.292288166863151
5.48,0.29781225138916
5.482,0.302473873236245
5.484,0.306279638629665
5.486,0.30897051576082
5.488,0.310287472821111
5.49,0.309933723922358
5.492,0.307912477536465
5.494,0.304711410946543
5.496,0.30084193883983
5.498,0.29679434229113
5.5,0.292572829289228
5.502,0.287719573218929
5.504,0.282308498939313
5.506,0.276966416396172
5.508,0.272344356256785
5.51,0.269097540695924
5.512,0.267832265663825
5.514,0.267933301513649
5.516,0.267563710762022
5.518,0.264833438193546
5.52,0.257859797412448
5.522,0.245084619356556
5.524,0.228685010906683
5.526,0.214188789191216
5.528,0.202162417556143
5.53,0.18827951881055
5.532,0.173117963366576
5.534,0.161864569567156
5.536,0.155217384453988
5.538,0.149489902411092
5.54,0.140805632857868
5.542,0.125446720874436
5.544,0.103343931737456
5.546,0.0784337912597842
5.548,0.054179761575036
5.55,0.0320862378534744
5.552,0.0151444079690067
5.554,0.00610517517191697
5.556,-0.00100320331440279
5.558,-0.0156668780240343
5.56,-0.041323111060507
5.562,-0.0569083570493972
5.564,-0.0352006903583774
5.566,0.0392502902298889
5.568,0.132519579472115
5.57,0.210100023405697
5.572,0.285161669031279
5.574,0.382784998473455
5.576,0.516105445528786
5.578,0.651089943745147
5.58,0.74195541091334
5.582,0.74291876482416
5.584,0.63195752369348
5.586,0.482161469096461
5.588,0.37006402626883
5.59,0.290610900528698
5.592,0.218349947982418
5.594,0.127829024736342
5.596,0.00590205556244827
5.598,-0.111390183416912
5.6,-0.186026942656098
5.602,-0.22843984822964
5.604,-0.236324156718392
5.606,-0.23
5.608,-0.219658787808854
5.61,-0.2052117331862
5.612,-0.184
5.614,-0.155658857942114
5.616,-0.129
5.618,-0.112300491341789
5.62,-0.102522462562715
5.622,-0.093799310614784
5.624,-0.0804779678558527
5.626,-0.0618166809782733
5.628,-0.0419850110088955
5.63,-0.0252532012974333
5.632,-0.013295874284988
5.634,-0.00519203150404735
5.636,9.21785958835075e-05
5.638,0.00357365292416462
5.64,0.00587933164404619
5.642,0.00724619817266858
5.644,0.00789428128603703
5.646,0.00804360976015678
5.648,0.00791331043088433
5.65,0.0077017655106561
5.652,0.00758661258848853
5.654,0.00774458731324928
5.656,0.00835242533380609
5.658,0.00958686229902661
5.66,0.0116246338577786
5.662,0.0146303858013305
5.664,0.0184906971961728
5.666,0.0228140803840169
5.668,0.0271969578489757
5.67,0.0312357520751616
5.672,0.0345394846130014
5.674,0.0370069555381451
5.676,0.0388267434514659
5.678,0.0402000260201512
5.68,0.041327980911388
5.682,0.0424117857923639
5.684,0.0436443578015284
5.686,0.0450286219163644
5.688,0.046377510953388
5.69,0.0474956972003777
5.692,0.048187852945112
5.694,0.0482586504753694
5.696,0.0475269495272602
5.698,0.0461379211485282
5.7,0.0445630476985509
5.702,0.0398767771481348
5.704,0.0401728615910361
5.706,0.0416080692103207
5.708,0.0443062764359828
5.71,0.0479813831097426
5.712,0.0523294640042647
5.714,0.0570465938922135
5.716,0.0618288475462536
5.718,0.0663722997390497
5.72,0.0704922367309612
5.722,0.0744807907331276
5.724,0.0787493054443832
5.726,0.0837091245635623
5.728,0.0897025652305922
5.73,0.09671069820171
5.732,0.104305007082003
5.734,0.111971835328498
5.736,0.119296453787975
5.738,0.126259842866239
5.74,0.132941910358849
5.742,0.139446283663765
5.744,0.145971468588561
5.746,0.152739690543212
5.748,0.159956748656116
5.75,0.167450637579387
5.752,0.174796116495812
5.754,0.18204979433441
5.756,0.189392849031157
5.758,0.19702897813104
5.76,0.205308806441347
5.762,0.213616814796703
5.764,0.220988979895754
5.766,0.227088514314719
5.768,0.234073139371088
5.77,0.244395812572507
5.772,0.258959394038842
5.774,0.273779918319467
5.776,0.28476840028133
5.778,0.292288166863151
5.78,0.29781225138916
5.782,0.302473873236245
5.784,0.306279638629665
5.786,0.30897051576082
5.788,0.310287472821111
5.79,0.309933723922358
5.792,0.307912477536465
5.794,0.304711410946543
5.796,0.30084193883983
5.798,0.29679434229113
5.8,0.292572829289228
5.802,0.287719573218929
5.804,0.282308498939313
5.806,0.276966416396172
5.808,0.272344356256785
5.81,0.269097540695924
5.812,0.267832265663825
5.814,0.267933301513649
5.816,0.267563710762022
5.818,0.264833438193546
5.82,0.257859797412448
5.822,0.245084619356556
5.824,0.228685010906683
5.826,0.214188789191216
5.828,0.202162417556143
5.83,0.18827951881055
5.832,0.173117963366576
5.834,0.161864569567156
5.836,0.155217384453988
5.838,0.149489902411092
5.84,0.140805632857868
5.842,0.125446720874436
5.844,0.103343931737456
5.846,0.0784337912597842
5.848,0.054179761575036
5.85,0.0320862378534744
5.852,0.0151444079690067
5.854,0.00610517517191697
5.856,-0.00100320331440279
5.858,-0.0156668780240343
5.86,-0.041323111060507
5.862,-0.0569083570493972
5.864,-0.0352006903583774
5.866,0.0392502902298889
5.868,0.132519579472115
5.87,0.210100023405697
5.872,0.285161669031279
5.874,0.382784998473455
5.876,0.516105445528786
5.878,0.651089943745147
5.88,0.74195541091334
5.882,0.74291876482416
5.884,0.63195752369348
5.886,0.482161469096461
5.888,0.37006402626883
5.89,0.290610900528698
5.892,0.218349947982418
5.894,0.127829024736342
5.896,0.00590205556244827
5.898,-0.111390183416912
5.9,-0.186026942656098
5.902,-0.22843984822964
5.904,-0.236324156718392
5.906,-0.23
5.908,-0.219658787808854
5.91,-0.2052117331862
5.912,-0.184
5.914,-0.155658857942114
5.916,-0.129
5.918,-0.112300491341789
5.92,-0.102522462562715
5.922,-0.093799310614784
5.924,-0.0804779678558527
5.926,-0.0618166809782733
5.928,-0.0419850110088955
5.93,-0.0252532012974333
5.932,-0.013295874284988
5.934,-0.00519203150404735
5.936,9.21785958835075e-05
5.938,0.00357365292416462
5.94,0.00587933164404619
5.942,0.00724619817266858
5.944,0.00789428128603703
5.946,0.00804360976015678
5.948,0.00791331043088433
5.95,0.0077017655106561
5.952,0.00758661258848853
5.954,0.00774458731324928
5.956,0.00835242533380609
5.958,0.00958686229902661
5.96,0.0116246338577786
5.962,0.0146303858013305
5.964,0.0184906971961728
5.966,0.0228140803840169
5.968,0.0271969578489757
5.97,0.0312357520751616
5.972,0.0345394846130014
5.974,0.0370069555381451
5.976,0.0388267434514659
5.978,0.0402000260201512
5.98,0.041327980911388
5.982,0.0424117857923639
5.984,0.0436443578015284
5.986,0.0450286219163644
5.988,0.046377510953388
5.99,0.0474956972003777
5.992,0.048187852945112
5.994,0.0482586504753694
5.996,0.0475269495272602
5.998,0.0461379211485282
6,0.0445630476985509
6.002,0.0432879989850372
6.004,0.039387222978794
6.006,0.040936646704522
6.008,0.0436830617570127
6.01,0.0473403679779862
6.012,0.0516046401401072
6.014,0.0561719530160401
6.016,0.0607383813784494
6.018,0.065
6.02,0.0687720951410511
6.022,0.0723467990127424
6.024,0.076135455313908
6.026,0.0805494077433824
6.028,0.0859999999999999
6.03,0.0927444090756269
6.032,0.100423145134258
6.034,0.108522551632918
6.036,0.116528972028636
6.038,0.124027677168191
6.04,0.130999647457388
6.042,0.137548510294188
6.044,0.143872771486163
6.046,0.15019465644329
6.048,0.156736390575543
6.05,0.16370377301132
6.052,0.17104936740969
6.054,0.178846208981252
6.056,0.187275475661979
6.058,0.196518345387846
6.06,0.206407491958852
6.062,0.215809445202328
6.064,0.22373766220791
6.066,0.229855355551817
6.068,0.236334681320556
6.07,0.245960596709187
6.072,0.259967961524991
6.074,0.274387245086358
6.076,0.285129462260239
6.078,0.292557939985352
6.08,0.298149083218358
6.082,0.30311365888206
6.084,0.307535820747633
6.086,0.311159908638909
6.088,0.313726890747288
6.09,0.314916243780463
6.092,0.314185215915423
6.094,0.311475524140365
6.096,0.307274845738401
6.098,0.302094595396769
6.1,0.29642505419027
6.102,0.290294468589723
6.104,0.283797897066645
6.106,0.277562149566827
6.108,0.272238074518093
6.11,0.268476702587722
6.112,0.266880138218462
6.114,0.266832969524016
6.116,0.26649825902101
6.118,0.263985951494047
6.12,0.257405991727729
6.122,0.245030727808527
6.124,0.2288677837659
6.126,0.21443760790861
6.128,0.202306663582642
6.13,0.188148573597086
6.132,0.172556106835502
6.134,0.161058746483559
6.136,0.154697204425689
6.138,0.149799873517335
6.14,0.142490263177898
6.142,0.129050518487496
6.144,0.109411404722791
6.146,0.0870438725833723
6.148,0.0635490837497961
6.15,0.0399658582790605
6.152,0.0192853840450723
6.154,0.0060177629600561
6.156,0.00122804689516529
6.158,-0.00281071602174149
6.16,-0.015660989763682
6.162,-0.0407600364341858
6.164,-0.0570111322704138
6.166,-0.0364292487064853
6.168,0.0371991184084892
6.17,0.129982142219638
6.172,0.207412668764359
6.174,0.282651879926432
6.176,0.380576360142639
6.178,0.514117645521724
6.18,0.649233804494701
6.182,0.740141754852372
6.184,0.741062091314953
6.186,0.630056901474988
6.188,0.480300536284309
6.19,0.368330097908063
6.192,0.289091291664361
6.194,0.217131973659556
6.196,0.127
6.198,0.00551187214553628
6.2,-0.11144132703003
6.202,-0.193585615626068
6.204,-0.22843984822964
6.206,-0.236324156718392
6.208,-0.23
6.21,-0.219658787808854
6.212,-0.2052117331862
6.214,-0.184
6.216,-0.155658857942114
6.218,-0.129
6.22,-0.112300491341789
6.222,-0.102522462562715
6.224,-0.093799310614784
6.226,-0.0804779678558527
6.228,-0.0618166809782733
6.23,-0.0419850110088955
6.232,-0.0252532012974333
6.234,-0.013295874284988
6.236,-0.00519203150404735
6.238,9.21785958835075e-05
6.24,0.00357365292416462
6.242,0.00587933164404619
6.244,0.00724619817266858
6.246,0.00789428128603703
6.248,0.00804360976015678
6.25,0.00791331043088433
6.252,0.0077017655106561
6.254,0.00758661258848853
6.256,0.00774458731324928
6.258,0.00835242533380609
6.26,0.00958686229902661
6.262,0.0116246338577786
6.264,0.0146303858013305
6.266,0.0184906971961728
6.268,0.0228140803840169
6.27,0.0271969578489757
6.272,0.0312357520751616
6.274,0.0345394846130014
6.276,0.0370069555381451
6.278,0.0388267434514659
6.28,0.0402000260201512
6.282,0.041327980911388
6.284,0.0424117857923639
6.286,0.0436443578015284
6.288,0.0450286219163644
6.29,0.046377510953388
6.292,0.0474956972003777
6.294,0.048187852945112
6.296,0.0482586504753694
6.298,0.0475269495272602
6.3,0.0461379211485282
6.302,0.0445630476985509
6.304,0.0432879989850372
6.306,0.039387222978794
6.308,0.040936646704522
6.31,0.0436830617570127
6.312,0.0473403679779862
6.314,0.0516046401401072
6.316,0.0561719530160401
6.318,0.0607383813784494
6.32,0.065
6.322,0.0687720951410511
6.324,0.0723467990127424
6.326,0.076135455313908
6.328,0.0805494077433824
6.33,0.0859999999999999
6.332,0.0927444090756269
6.334,0.100423145134258
6.336,0.108522551632918
6.338,0.116528972028636
6.34,0.124027677168191
6.342,0.130999647457388
6.344,0.137548510294188
6.346,0.143872771486163
6.348,0.15019465644329
6.35,0.156736390575543
6.352,0.16370377301132
6.354,0.17104936740969
6.356,0.178846208981252
6.358,0.187275475661979
6.36,0.196518345387846
6.362,0.206407491958852
6.364,0.215809445202328
6.366,0.22373766220791
6.368,0.229855355551817
6.37,0.236334681320556
6.372,0.245960596709187
6.374,0.259967961524991
6.376,0.274387245086358
6.378,0.285129462260239
6.38,0.292557939985352
6.382,0.298149083218358
6.384,0.30311365888206
6.386,0.307535820747633
6.388,0.311159908638909
6.39,0.313726890747288
6.392,0.314916243780463
6.394,0.314185215915423
6.396,0.311475524140365
6.398,0.307274845738401
6.4,0.302094595396769
6.402,0.29642505419027
6.404,0.290294468589723
6.406,0.283797897066645
6.408,0.277562149566827
6.41,0.272238074518093
6.412,0.268476702587722
6.414,0.266880138218462
6.416,0.266832969524016
6.418,0.26649825902101
6.42,0.263985951494047
6.422,0.257405991727729
6.424,0.245030727808527
6.426,0.2288677837659
6.428,0.21443760790861
6.43,0.202306663582642
6.432,0.188148573597086
6.434,0.172556106835502
6.436,0.161058746483559
6.438,0.154697204425689
6.44,0.149799873517335
6.442,0.142490263177898
6.444,0.129050518487496
6.446,0.109411404722791
6.448,0.0870438725833723
6.45,0.0635490837497961
6.452,0.0399658582790605
6.454,0.0192853840450723
6.456,0.0060177629600561
6.458,0.00122804689516529
6.46,-0.00281071602174149
6.462,-0.015660989763682
6.464,-0.0407600364341858
6.466,-0.0570111322704138
6.468,-0.0364292487064853
6.47,0.0371991184084892
6.472,0.129982142219638
6.474,0.207412668764359
6.476,0.282651879926432
6.478,0.380576360142639
6.48,0.514117645521724
6.482,0.649233804494701
6.484,0.740141754852372
6.486,0.741062091314953
6.488,0.630056901474988
6.49,0.480300536284309
6.492,0.368330097908063
6.494,0.289091291664361
6.496,0.217131973659556
6.498,0.127
6.5,0.00551187214553628
6.502,-0.11144132703003
6.504,-0.193585615626068
6.506,-0.22843984822964
6.508,-0.236324156718392
6.51,-0.23
6.512,-0.219658787808854
6.514,-0.2052117331862
6.516,-0.184
6.518,-0.155658857942114
6.52,-0.129
6.522,-0.112300491341789
6.524,-0.102522462562715
6.526,-0.093799310614784
6.528,-0.0804779678558527
6.53,-0.0618166809782733
6.532,-0.0419850110088955
6.534,-0.0252532012974333
6.536,-0.013295874284988
6.538,-0.00519203150404735
6.54,9.21785958835075e-05
6.542,0.00357365292416462
6.544,0.00587933164404619
6.546,0.00724619817266858
6.548,0.00789428128603703
6.55,0.00804360976015678
6.552,0.00791331043088433
6.554,0.0077017655106561
6.556,0.00758661258848853
6.558,0.00774458731324928
6.56,0.00835242533380609
6.562,0.00958686229902661
6.564,0.0116246338577786
6.566,0.0146303858013305
6.568,0.0184906971961728
6.57,0.0228140803840169
6.572,0.0271969578489757
6.574,0.0312357520751616
6.576,0.0345394846130014
6.578,0.0370069555381451
6.58,0.0388267434514659
6.582,0.0402000260201512
6.584,0.041327980911388
6.586,0.0424117857923639
6.588,0.0436443578015284
6.59,0.0450286219163644
6.592,0.046377510953388
6.594,0.0474956972003777
6.596,0.048187852945112
6.598,0.0482586504753694
6.6,0.0475269495272602
6.602,0.0461379211485282
6.604,0.0445630476985509
6.606,0.0432879989850372
6.608,0.039387222978794
6.61,0.040936646704522
6.612,0.0436830617570127
6.614,0.0473403679779862
6.616,0.0516046401401072
6.618,0.0561719530160401
6.62,0.0607383813784494
6.622,0.065
6.624,0.0687720951410511
6.626,0.0723467990127424
6.628,0.076135455313908
6.63,0.0805494077433824
6.632,0.0859999999999999
6.634,0.0927444090756269
6.636,0.100423145134258
6.638,0.108522551632918
6.64,0.116528972028636
6.642,0.124027677168191
6.644,0.130999647457388
6.646,0.137548510294188
6.648,0.143872771486163
6.65,0.15019465644329
6.652,0.156736390575543
6.654,0.16370377301132
6.656,0.17104936740969
6.658,0.178846208981252
6.66,0.187275475661979
6.662,0.196518345387846
6.664,0.206407491958852
6.666,0.215809445202328
6.668,0.22373766220791
6.67,0.229855355551817
6.672,0.236334681320556
6.674,0.245960596709187
6.676,0.259967961524991
6.678,0.274387245086358
6.68,0.285129462260239
6.682,0.292557939985352
6.684,0.298149083218358
6.686,0.30311365888206
6.688,0.307535820747633
6.69,0.311159908638909
6.692,0.313726890747288
6.694,0.314916243780463
6.696,0.314185215915423
6.698,0.311475524140365
6.7,0.307274845738401
6.702,0.302094595396769
6.704,0.29642505419027
6.706,0.290294468589723
6.708,0.283797897066645
6.71,0.277562149566827
6.712,0.272238074518093
6.714,0.268476702587722
6.716,0.266880138218462
6.718,0.266832969524016
6.72,0.26649825902101
6.722,0.263985951494047
6.724,0.257405991727729
6.726,0.245030727808527
6.728,0.2288677837659
6.73,0.21443760790861
6.732,0.202306663582642
6.734,0.188148573597086
6.736,0.172556106835502
6.738,0.161058746483559
6.74,0.154697204425689
6.742,0.149799873517335
6.744,0.142490263177898
6.746,0.129050518487496
6.748,0.109411404722791
6.75,0.0870438725833723
6.752,0.0635490837497961
6.754,0.0399658582790605
6.756,0.0192853840450723
6.758,0.0060177629600561
6.76,0.00122804689516529
6.762,-0.00281071602174149
6.764,-0.015660989763682
6.766,-0.0407600364341858
6.768,-0.0570111322704138
6.77,-0.0364292487064853
6.772,0.0371991184084892
6.774,0.129982142219638
6.776,0.207412668764359
6.778,0.282651879926432
6.78,0.380576360142639
6.782,0.514117645521724
6.784,0.649233804494701
6.786,0.740141754852372
6.788,0.741062091314953
6.79,0.630056901474988
6.792,0.480300536284309
6.794,0.368330097908063
6.796,0.289091291664361
6.798,0.217131973659556
6.8,0.127
6.802,0.00551187214553628
6.804,-0.11144132703003
6.806,-0.193585615626068
6.808,-0.22843984822964
6.81,-0.236324156718392
6.812,-0.23
6.814,-0.219658787808854
6.816,-0.2052117331862
6.818,-0.184
6.82,-0.155658857942114
6.822,-0.129
6.824,-0.112300491341789
6.826,-0.102522462562715
6.828,-0.093799310614784
6.83,-0.0804779678558527
6.832,-0.0618166809782733
6.834,-0.0419850110088955
6.836,-0.0252532012974333
6.838,-0.013295874284988
6.84,-0.00519203150404735
6.842,9.21785958835075e-05
6.844,0.00357365292416462
6.846,0.00587933164404619
6.848,0.00724619817266858
6.85,0.00789428128603703
6.852,0.00804360976015678
6.854,0.00791331043088433
6.856,0.0077017655106561
6.858,0.00758661258848853
6.86,0.00774458731324928
6.862,0.00835242533380609
6.864,0.00958686229902661
6.866,0.0116246338577786
6.868,0.0146303858013305
6.87,0.0184906971961728
6.872,0.0228140803840169
6.874,0.0271969578489757
6.876,0.0312357520751616
6.878,0.0345394846130014
6.88,0.0370069555381451
6.882,0.0388267434514659
6.884,0.0402000260201512
6.886,0.041327980911388
6.888,0.0424117857923639
6.89,0.0436443578015284
6.892,0.0450286219163644
6.894,0.046377510953388
6.896,0.0474956972003777
6.898,0.048187852945112
6.9,0.0482586504753694
6.902,0.0475269495272602
6.904,0.0461379211485282
6.906,0.0445630476985509
6.908,0.0432879989850372
6.91,0.039387222978794
6.912,0.040936646704522
6.914,0.0436830617570127
6.916,0.0473403679779862
6.918,0.0516046401401072
6.92,0.0561719530160401
6.922,0.0607383813784494
6.924,0.065
6.926,0.0687720951410511
6.928,0.0723467990127424
6.93,0.076135455313908
6.932,0.0805494077433824
6.934,0.0859999999999999
6.936,0.0927444090756269
6.938,0.100423145134258
6.94,0.108522551632918
6.942,0.116528972028636
6.944,0.124027677168191
6.946,0.130999647457388
6.948,0.137548510294188
6.95,0.143872771486163
6.952,0.15019465644329
6.954,0.156736390575543
6.956,0.16370377301132
6.958,0.17104936740969
6.96,0.178846208981252
6.962,0.187275475661979
6.964,0.196518345387846
6.966,0.206407491958852
6.968,0.215809445202328
6.97,0.22373766220791
6.972,0.229855355551817
6.974,0.236334681320556
6.976,0.245960596709187
6.978,0.259967961524991
6.98,0.274387245086358
6.982,0.285129462260239
6.984,0.292557939985352
6.986,0.298149083218358
6.988,0.30311365888206
6.99,0.307535820747633
6.992,0.311159908638909
6.994,0.313726890747288
6.996,0.314916243780463
6.998,0.314185215915423
7,0.311475524140365
7.002,0.307274845738401
7.004,0.302094595396769
7.006,0.29642505419027
7.008,0.290294468589723
7.01,0.283797897066645
7.012,0.277562149566827
7.014,0.272238074518093
7.016,0.268476702587722
7.018,0.266880138218462
7.02,0.266832969524016
7.022,0.26649825902101
7.024,0.263985951494047
7.026,0.257405991727729
7.028,0.245030727808527
7.03,0.2288677837659
7.032,0.21443760790861
7.034,0.202306663582642
7.036,0.188148573597086
7.038,0.172556106835502
7.04,0.161058746483559
7.042,0.154697204425689
7.044,0.149799873517335
7.046,0.142490263177898
7.048,0.129050518487496
7.05,0.109411404722791
7.052,0.0870438725833723
7.054,0.0635490837497961
7.056,0.0399658582790605
7.058,0.0192853840450723
7.06,0.0060177629600561
7.062,0.00122804689516529
7.064,-0.00281071602174149
7.066,-0.015660989763682
7.068,-0.0407600364341858
7.07,-0.0570111322704138
7.072,-0.0364292487064853
7.074,0.0371991184084892
7.076,0.129982142219638
7.078,0.207412668764359
7.08,0.282651879926432
7.082,0.380576360142639
7.084,0.514117645521724
7.086,0.649233804494701
7.088,0.740141754852372
7.09,0.741062091314953
7.092,0.630056901474988
7.094,0.480300536284309
7.096,0.368330097908063
7.098,0.289091291664361
7.1,0.217131973659556
7.102,0.127
7.104,0.00551187214553628
7.106,-0.11144132703003
7.108,-0.193585615626068
7.11,-0.22843984822964
7.112,-0.236324156718392
7.114,-0.23
7.116,-0.219658787808854
7.118,-0.2052117331862
7.12,-0.184
7.122,-0.155658857942114
7.124,-0.129
7.126,-0.112300491341789
7.128,-0.102522462562715
7.13,-0.093799310614784
7.132,-0.0804779678558527
7.134,-0.0618166809782733
7.136,-0.0419850110088955
7.138,-0.0252532012974333
7.14,-0.013295874284988
7.142,-0.00519203150404735
7.144,9.21785958835075e-05
7.146,0.00357365292416462
7.148,0.00587933164404619
7.15,0.00724619817266858
7.152,0.00789428128603703
7.154,0.00804360976015678
7.156,0.00791331043088433
7.158,0.0077017655106561
7.16,0.00758661258848853
7.162,0.00774458731324928
7.164,0.00835242533380609
7.166,0.00958686229902661
7.168,0.0116246338577786
7.17,0.0146303858013305
7.172,0.0184906971961728
7.174,0.0228140803840169
7.176,0.0271969578489757
7.178,0.0312357520751616
7.18,0.0345394846130014
7.182,0.0370069555381451
7.184,0.0388267434514659
7.186,0.0402000260201512
7.188,0.041327980911388
7.19,0.0424117857923639
7.192,0.0436443578015284
7.194,0.0450286219163644
7.196,0.046377510953388
7.198,0.0474956972003777
7.2,0.048187852945112
7.202,0.0482586504753694
7.204,0.0475269495272602
7.206,0.0461379211485282
7.208,0.0445630476985509
7.21,0.0432879989850372
7.212,0.039387222978794
7.214,0.040936646704522
7.216,0.0436830617570127
7.218,0.0473403679779862
7.22,0.0516046401401072
7.222,0.0561719530160401
7.224,0.0607383813784494
7.226,0.065
7.228,0.0687720951410511
7.23,0.0723467990127424
7.232,0.076135455313908
7.234,0.0805494077433824
7.236,0.0859999999999999
7.238,0.0927444090756269
7.24,0.100423145134258
7.242,0.108522551632918
7.244,0.116528972028636
7.246,0.124027677168191
7.248,0.130999647457388
7.25,0.137548510294188
7.252,0.143872771486163
7.254,0.15019465644329
7.256,0.156736390575543
7.258,0.16370377301132
7.26,0.17104936740969
7.262,0.178846208981252
7.264,0.187275475661979
7.266,0.196518345387846
7.268,0.206407491958852
7.27,0.215809445202328
7.272,0.22373766220791
7.274,0.229855355551817
7.276,0.236334681320556
7.278,0.245960596709187
7.28,0.259967961524991
7.282,0.274387245086358
7.284,0.285129462260239
7.286,0.292557939985352
7.288,0.298149083218358
7.29,0.30311365888206
7.292,0.307535820747633
7.294,0.311159908638909
7.296,0.313726890747288
7.298,0.314916243780463
7.3,0.314185215915423
7.302,0.311475524140365
7.304,0.307274845738401
7.306,0.302094595396769
7.308,0.29642505419027
7.31,0.290294468589723
7.312,0.283797897066645
7.314,0.277562149566827
7.316,0.272238074518093
7.318,0.268476702587722
7.32,0.266880138218462
7.322,0.266832969524016
7.324,0.26649825902101
7.326,0.263985951494047
7.328,0.257405991727729
7.33,0.245030727808527
7.332,0.2288677837659
7.334,0.21443760790861
7.336,0.202306663582642
7.338,0.188148573597086
7.34,0.172556106835502
7.342,0.161058746483559
7.344,0.154697204425689
7.346,0.149799873517335
7.348,0.142490263177898
7.35,0.129050518487496
7.352,0.109411404722791
7.354,0.0870438725833723
7.356,0.0635490837497961
7.358,0.0399658582790605
7.36,0.0192853840450723
7.362,0.0060177629600561
7.364,0.00122804689516529
7.366,-0.00281071602174149
7.368,-0.015660989763682
7.37,-0.0407600364341858
7.372,-0.0570111322704138
7.374,-0.0364292487064853
7.376,0.0371991184084892
7.378,0.129982142219638
7.38,0.207412668764359
7.382,0.282651879926432
7.384,0.380576360142639
7.386,0.514117645521724
7.388,0.649233804494701
7.39,0.740141754852372
7.392,0.741062091314953
7.394,0.630056901474988
7.396,0.480300536284309
7.398,0.368330097908063
7.4,0.289091291664361
7.402,0.217131973659556
7.404,0.127
7.406,0.00551187214553628
7.408,-0.11144132703003
7.41,-0.193585615626068
7.412,-0.22843984822964
7.414,-0.236324156718392
7.416,-0.23
7.418,-0.219658787808854
7.42,-0.2052117331862
7.422,-0.184
7.424,-0.155658857942114
7.426,-0.129
7.428,-0.112300491341789
7.43,-0.102522462562715
7.432,-0.093799310614784
7.434,-0.0804779678558527
7.436,-0.0618166809782733
7.438,-0.0419850110088955
7.44,-0.0252532012974333
7.442,-0.013295874284988
7.444,-0.00519203150404735
7.446,9.21785958835075e-05
7.448,0.00357365292416462
7.45,0.00587933164404619
7.452,0.00724619817266858
7.454,0.00789428128603703
7.456,0.00804360976015678
7.458,0.00791331043088433
7.46,0.0077017655106561
7.462,0.00758661258848853
7.464,0.00774458731324928
7.466,0.00835242533380609
7.468,0.00958686229902661
7.47,0.0116246338577786
7.472,0.0146303858013305
7.474,0.0184906971961728
7.476,0.0228140803840169
7.478,0.0271969578489757
7.48,0.0312357520751616
7.482,0.0345394846130014
7.484,0.0370069555381451
7.486,0.0388267434514659
7.488,0.0402000260201512
7.49,0.041327980911388
7.492,0.0424117857923639
7.494,0.0436443578015284
7.496,0.0450286219163644
7.498,0.046377510953388
7.5,0.0474956972003777
7.502,0.048187852945112
7.504,0.0482586504753694
7.506,0.0475269495272602
7.508,0.0461379211485282
7.51,0.0445630476985509
7.512,0.0432879989850372
7.514,0.039387222978794
7.516,0.040936646704522
7.518,0.0436830617570127
7.52,0.0473403679779862
7.522,0.0516046401401072
7.524,0.0561719530160401
7.526,0.0607383813784494
7.528,0.065
7.53,0.0687720951410511
7.532,0.0723467990127424
7.534,0.076135455313908
7.536,0.0805494077433824
7.538,0.0859999999999999
7.54,0.0927444090756269
7.542,0.100423145134258
7.544,0.108522551632918
7.546,0.116528972028636
7.548,0.124027677168191
7.55,0.130999647457388
7.552,0.137548510294188
7.554,0.143872771486163
7.556,0.15019465644329
7.558,0.156736390575543
7.56,0.16370377301132
7.562,0.17104936740969
7.564,0.178846208981252
7.566,0.187275475661979
7.568,0.196518345387846
7.57,0.206407491958852
7.572,0.215809445202328
7.574,0.22373766220791
7.576,0.229855355551817
7.578,0.236334681320556
7.58,0.245960596709187
7.582,0.259967961524991
7.584,0.274387245086358
7.586,0.285129462260239
7.588,0.292557939985352
7.59,0.298149083218358
7.592,0.30311365888206
7.594,0.307535820747633
7.596,0.311159908638909
7.598,0.313726890747288
7.6,0.314916243780463
7.602,0.314185215915423
7.604,0.311475524140365
7.606,0.307274845738401
7.608,0.302094595396769
7.61,0.29642505419027
7.612,0.290294468589723
7.614,0.283797897066645
7.616,0.277562149566827
7.618,0.272238074518093
7.62,0.268476702587722
7.622,0.266880138218462
7.624,0.266832969524016
7.626,0.26649825902101
7.628,0.263985951494047
7.63,0.257405991727729
7.632,0.245030727808527
7.634,0.2288677837659
7.636,0.21443760790861
7.638,0.202306663582642
7.64,0.188148573597086
7.642,0.172556106835502
7.644,0.161058746483559
7.646,0.154697204425689
7.648,0.149799873517335
7.65,0.142490263177898
7.652,0.129050518487496
7.654,0.109411404722791
7.656,0.0870438725833723
7.658,0.0635490837497961
7.66,0.0399658582790605
7.662,0.0192853840450723
7.664,0.0060177629600561
7.666,0.00122804689516529
7.668,-0.00281071602174149
7.67,-0.015660989763682
7.672,-0.0407600364341858
7.674,-0.0570111322704138
7.676,-0.0364292487064853
7.678,0.0371991184084892
7.68,0.129982142219638
7.682,0.207412668764359
7.684,0.282651879926432
7.686,0.380576360142639
7.688,0.514117645521724
7.69,0.649233804494701
7.692,0.740141754852372
7.694,0.741062091314953
7.696,0.630056901474988
7.698,0.480300536284309
7.7,0.368330097908063
7.702,0.289091291664361
7.704,0.217131973659556
7.706,0.127
7.708,0.00551187214553628
7.71,-0.11144132703003
7.712,-0.193585615626068
7.714,-0.22843984822964
7.716,-0.236324156718392
7.718,-0.23
7.72,-0.219658787808854
7.722,-0.2052117331862
7.724,-0.184
7.726,-0.155658857942114
7.728,-0.129
7.73,-0.112300491341789
7.732,-0.102522462562715
7.734,-0.093799310614784
7.736,-0.0804779678558527
7.738,-0.0618166809782733
7.74,-0.0419850110088955
7.742,-0.0252532012974333
7.744,-0.013295874284988
7.746,-0.00519203150404735
7.748,9.21785958835075e-05
7.75,0.00357365292416462
7.752,0.00587933164404619
7.754,0.00724619817266858
7.756,0.00789428128603703
7.758,0.00804360976015678
7.76,0.00791331043088433
7.762,0.0077017655106561
7.764,0.00758661258848853
7.766,0.00774458731324928
7.768,0.00835242533380609
7.77,0.00958686229902661
7.772,0.0116246338577786
7.774,0.0146303858013305
7.776,0.0184906971961728
7.778,0.0228140803840169
7.78,0.0271969578489757
7.782,0.0312357520751616
7.784,0.0345394846130014
7.786,0.0370069555381451
7.788,0.0388267434514659
7.79,0.0402000260201512
7.792,0.041327980911388
7.794,0.0424117857923639
7.796,0.0436443578015284
7.798,0.0450286219163644
7.8,0.046377510953388
7.802,0.0474956972003777
7.804,0.048187852945112
7.806,0.0482586504753694
7.808,0.0475269495272602
7.81,0.0461379211485282
7.812,0.0445630476985509
7.814,0.0432879989850372
7.816,0.039387222978794
7.818,0.040936646704522
7.82,0.0436830617570127
7.822,0.0473403679779862
7.824,0.0516046401401072
7.826,0.0561719530160401
7.828,0.0607383813784494
7.83,0.065
7.832,0.0687720951410511
7.834,0.0723467990127424
7.836,0.076135455313908
7.838,0.0805494077433824
7.84,0.0859999999999999
7.842,0.0927444090756269
7.844,0.100423145134258
7.846,0.108522551632918
7.848,0.116528972028636
7.85,0.124027677168191
7.852,0.130999647457388
7.854,0.137548510294188
7.856,0.143872771486163
7.858,0.15019465644329
7.86,0.156736390575543
7.862,0.16370377301132
7.864,0.17104936740969
7.866,0.178846208981252
7.868,0.187275475661979
7.87,0.196518345387846
7.872,0.206407491958852
7.874,0.215809445202328
7.876,0.22373766220791
7.878,0.229855355551817
7.88,0.236334681320556
7.882,0.245960596709187
7.884,0.259967961524991
7.886,0.274387245086358
7.888,0.285129462260239
7.89,0.292557939985352
7.892,0.298149083218358
7.894,0.30311365888206
7.896,0.307535820747633
7.898,0.311159908638909
7.9,0.313726890747288
7.902,0.314916243780463
7.904,0.314185215915423
7.906,0.311475524140365
7.908,0.307274845738401
7.91,0.302094595396769
7.912,0.29642505419027
7.914,0.290294468589723
7.916,0.283797897066645
7.918,0.277562149566827
7.92,0.272238074518093
7.922,0.268476702587722
7.924,0.266880138218462
7.926,0.266832969524016
7.928,0.26649825902101
7.93,0.263985951494047
7.932,0.257405991727729
7.934,0.245030727808527
7.936,0.2288677837659
7.938,0.21443760790861
7.94,0.202306663582642
7.942,0.188148573597086
7.944,0.172556106835502
7.946,0.161058746483559
7.948,0.154697204425689
7.95,0.149799873517335
7.952,0.142490263177898
7.954,0.129050518487496
7.956,0.109411404722791
7.958,0.0870438725833723
7.96,0.0635490837497961
7.962,0.0399658582790605
7.964,0.0192853840450723
7.966,0.0060177629600561
7.968,0.00122804689516529
7.97,-0.00281071602174149
7.972,-0.015660989763682
7.974,-0.0407600364341858
7.976,-0.0570111322704138
7.978,-0.0364292487064853
7.98,0.0371991184084892
7.982,0.129982142219638
7.984,0.207412668764359
7.986,0.282651879926432
7.988,0.380576360142639
7.99,0.514117645521724
7.992,0.649233804494701
7.994,0.740141754852372
7.996,0.741062091314953
7.998,0.630056901474988
8,0.480300536284309
8.002,0.368330097908063
8.004,0.289091291664361
8.006,0.217131973659556
8.008,0.127
8.01,0.00551187214553628
8.012,-0.11144132703003
8.014,-0.193585615626068
8.016,-0.22843984822964
8.018,-0.236324156718392
8.02,-0.23
8.022,-0.219658787808854
8.024,-0.2052117331862
8.026,-0.184
8.028,-0.155658857942114
8.03,-0.129
8.032,-0.112300491341789
8.034,-0.102522462562715
8.036,-0.093799310614784
8.038,-0.0804779678558527
8.04,-0.0618166809782733
8.042,-0.0419850110088955
8.044,-0.0252532012974333
8.046,-0.013295874284988
8.048,-0.00519203150404735
8.05,9.21785958835075e-05
8.052,0.00357365292416462
8.054,0.00587933164404619
8.056,0.00724619817266858
8.058,0.00789428128603703
8.06,0.00804360976015678
8.062,0.00791331043088433
8.064,0.0077017655106561
8.066,0.00758661258848853
8.068,0.00774458731324928
8.07,0.00835242533380609
8.072,0.00958686229902661
8.074,0.0116246338577786
8.076,0.0146303858013305
8.078,0.0184906971961728
8.08,0.0228140803840169
8.082,0.0271969578489757
8.084,0.0312357520751616
8.086,0.0345394846130014
8.088,0.0370069555381451
8.09,0.0388267434514659
8.092,0.0402000260201512
8.094,0.041327980911388
8.096,0.0424117857923639
8.098,0.0436443578015284
8.1,0.0450286219163644
8.102,0.046377510953388
8.104,0.0474956972003777
8.106,0.048187852945112
8.108,0.0482586504753694
8.11,0.0475269495272602
8.112,0.0461379211485282
8.114,0.0445630476985509
8.116,0.0432879989850372
8.118,0.039387222978794
8.12,0.040936646704522
8.122,0.0436830617570127
8.124,0.0473403679779862
8.126,0.0516046401401072
8.128,0.0561719530160401
8.13,0.0607383813784494
8.132,0.065
8.134,0.0687720951410511
8.136,0.0723467990127424
8.138,0.076135455313908
8.14,0.0805494077433824
8.142,0.0859999999999999
8.144,0.0927444090756269
8.146,0.100423145134258
8.148,0.108522551632918
8.15,0.116528972028636
8.152,0.124027677168191
8.154,0.130999647457388
8.156,0.137548510294188
8.158,0.143872771486163
8.16,0.15019465644329
8.162,0.156736390575543
8.164,0.16370377301132
8.166,0.17104936740969
8.168,0.178846208981252
8.17,0.187275475661979
8.172,0.196518345387846
8.174,0.206407491958852
8.176,0.215809445202328
8.178,0.22373766220791
8.18,0.229855355551817
8.182,0.236334681320556
8.184,0.245960596709187
8.186,0.259967961524991
8.188,0.274387245086358
8.19,0.285129462260239
8.192,0.292557939985352
8.194,0.298149083218358
8.196,0.30311365888206
8.198,0.307535820747633
8.2,0.311159908638909
8.202,0.313726890747288
8.204,0.314916243780463
8.206,0.314185215915423
8.208,0.311475524140365
8.21,0.307274845738401
8.212,0.302094595396769
8.214,0.29642505419027
8.216,0.290294468589723
8.218,0.283797897066645
8.22,0.277562149566827
8.222,0.272238074518093
8.224,0.268476702587722
8.226,0.266880138218462
8.228,0.266832969524016
8.23,0.26649825902101
8.232,0.263985951494047
8.234,0.257405991727729
8.236,0.245030727808527
8.238,0.2288677837659
8.24,0.21443760790861
8.242,0.202306663582642
8.244,0.188148573597086
8.246,0.172556106835502
8.248,0.161058746483559
8.25,0.154697204425689
8.252,0.149799873517335
8.254,0.142490263177898
8.256,0.129050518487496
8.258,0.109411404722791
8.26,0.0870438725833723
8.262,0.0635490837497961
8.264,0.0399658582790605
8.266,0.0192853840450723
8.268,0.0060177629600561
8.27,0.00122804689516529
8.272,-0.00281071602174149
8.274,-0.015660989763682
8.276,-0.0407600364341858
8.278,-0.0570111322704138
8.28,-0.0364292487064853
8.282,0.0371991184084892
8.284,0.129982142219638
8.286,0.207412668764359
8.288,0.282651879926432
8.29,0.380576360142639
8.292,0.514117645521724
8.294,0.649233804494701
8.296,0.740141754852372
8.298,0.741062091314953
8.3,0.630056901474988
8.302,0.480300536284309
8.304,0.368330097908063
8.306,0.289091291664361
8.308,0.217131973659556
8.31,0.127
8.312,0.00551187214553628
8.314,-0.11144132703003
8.316,-0.193585615626068
8.318,-0.22843984822964
8.32,-0.236324156718392
8.322,-0.23
8.324,-0.219658787808854
8.326,-0.2052117331862
8.328,-0.184
8.33,-0.155658857942114
8.332,-0.129
8.334,-0.112300491341789
8.336,-0.102522462562715
8.338,-0.093799310614784
8.34,-0.0804779678558527
8.342,-0.0618166809782733
8.344,-0.0419850110088955
8.346,-0.0252532012974333
8.348,-0.013295874284988
8.35,-0.00519203150404735
8.352,9.21785958835075e-05
8.354,0.00357365292416462
8.356,0.00587933164404619
8.358,0.00724619817266858
8.36,0.00789428128603703
8.362,0.00804360976015678
8.364,0.00791331043088433
8.366,0.0077017655106561
8.368,0.00758661258848853
8.37,0.00774458731324928
8.372,0.00835242533380609
8.374,0.00958686229902661
8.376,0.0116246338577786
8.378,0.0146303858013305
8.38,0.0184906971961728
8.382,0.0228140803840169
8.384,0.0271969578489757
8.386,0.0312357520751616
8.388,0.0345394846130014
8.39,0.0370069555381451
8.392,0.0388267434514659
8.394,0.0402000260201512
8.396,0.041327980911388
8.398,0.0424117857923639
8.4,0.0436443578015284
8.402,0.0450286219163644
8.404,0.046377510953388
8.406,0.0474956972003777
8.408,0.048187852945112
8.41,0.0482586504753694
8.412,0.0475269495272602
8.414,0.0461379211485282
8.416,0.0445630476985509
8.418,0.0432879989850372
8.42,0.039387222978794
8.422,0.040936646704522
8.424,0.0436830617570127
8.426,0.0473403679779862
8.428,0.0516046401401072
8.43,0.0561719530160401
8.432,0.0607383813784494
8.434,0.065
8.436,0.0687720951410511
8.438,0.0723467990127424
8.44,0.076135455313908
8.442,0.0805494077433824
8.444,0.0859999999999999
8.446,0.0927444090756269
8.448,0.100423145134258
8.45,0.108522551632918
8.452,0.116528972028636
8.454,0.124027677168191
8.456,0.130999647457388
8.458,0.137548510294188
8.46,0.143872771486163
8.462,0.15019465644329
8.464,0.156736390575543
8.466,0.16370377301132
8.468,0.17104936740969
8.47,0.178846208981252
8.472,0.187275475661979
8.474,0.196518345387846
8.476,0.206407491958852
8.478,0.215809445202328
8.48,0.22373766220791
8.482,0.229855355551817
8.484,0.236334681320556
8.486,0.245960596709187
8.488,0.259967961524991
8.49,0.274387245086358
8.492,0.285129462260239
8.494,0.292557939985352
8.496,0.298149083218358
8.498,0.30311365888206
8.5,0.307535820747633
8.502,0.311159908638909
8.504,0.313726890747288
8.506,0.314916243780463
8.508,0.314185215915423
8.51,0.311475524140365
8.512,0.307274845738401
8.514,0.302094595396769
8.516,0.29642505419027
8.518,0.290294468589723
8.52,0.283797897066645
8.522,0.277562149566827
8.524,0.272238074518093
8.526,0.268476702587722
8.528,0.266880138218462
8.53,0.266832969524016
8.532,0.26649825902101
8.534,0.263985951494047
8.536,0.257405991727729
8.538,0.245030727808527
8.54,0.2288677837659
8.542,0.21443760790861
8.544,0.202306663582642
8.546,0.188148573597086
8.548,0.172556106835502
8.55,0.161058746483559
8.552,0.154697204425689
8.554,0.149799873517335
8.556,0.142490263177898
8.558,0.129050518487496
8.56,0.109411404722791
8.562,0.0870438725833723
8.564,0.0635490837497961
8.566,0.0399658582790605
8.568,0.0192853840450723
8.57,0.0060177629600561
8.572,0.00122804689516529
8.574,-0.00281071602174149
8.576,-0.015660989763682
8.578,-0.0407600364341858
8.58,-0.0570111322704138
8.582,-0.0364292487064853
8.584,0.0371991184084892
8.586,0.129982142219638
8.588,0.207412668764359
8.59,0.282651879926432
8.592,0.380576360142639
8.594,0.514117645521724
8.596,0.649233804494701
8.598,0.740141754852372
8.6,0.741062091314953
8.602,0.630056901474988
8.604,0.480300536284309
8.606,0.368330097908063
8.608,0.289091291664361
8.61,0.217131973659556
8.612,0.127
8.614,0.00551187214553628
8.616,-0.11144132703003
8.618,-0.193585615626068
8.62,-0.22843984822964
8.622,-0.236324156718392
8.624,-0.23
8.626,-0.219658787808854
8.628,-0.2052117331862
8.63,-0.184
8.632,-0.155658857942114
8.634,-0.129
8.636,-0.112300491341789
8.638,-0.102522462562715
8.64,-0.093799310614784
8.642,-0.0804779678558527
8.644,-0.0618166809782733
8.646,-0.0419850110088955
8.648,-0.0252532012974333
8.65,-0.013295874284988
8.652,-0.00519203150404735
8.654,9.21785958835075e-05
8.656,0.00357365292416462
8.658,0.00587933164404619
8.66,0.00724619817266858
8.662,0.00789428128603703
8.664,0.00804360976015678
8.666,0.00791331043088433
8.668,0.0077017655106561
8.67,0.00758661258848853
8.672,0.00774458731324928
8.674,0.00835242533380609
8.676,0.00958686229902661
8.678,0.0116246338577786
8.68,0.0146303858013305
8.682,0.0184906971961728
8.684,0.0228140803840169
8.686,0.0271969578489757
8.688,0.0312357520751616
8.69,0.0345394846130014
8.692,0.0370069555381451
8.694,0.0388267434514659
8.696,0.0402000260201512
8.698,0.041327980911388
8.7,0.0424117857923639
8.702,0.0436443578015284
8.704,0.0450286219163644
8.706,0.046377510953388
8.708,0.0474956972003777
8.71,0.048187852945112
8.712,0.0482586504753694
8.714,0.0475269495272602
8.716,0.0461379211485282
8.718,0.0445630476985509
8.72,0.0432879989850372
8.722,0.039387222978794
8.724,0.040936646704522
8.726,0.0436830617570127
8.728,0.0473403679779862
8.73,0.0516046401401072
8.732,0.0561719530160401
8.734,0.0607383813784494
8.736,0.065
8.738,0.0687720951410511
8.74,0.0723467990127424
8.742,0.076135455313908
8.744,0.0805494077433824
8.746,0.0859999999999999
8.748,0.0927444090756269
8.75,0.100423145134258
8.752,0.108522551632918
8.754,0.116528972028636
8.756,0.124027677168191
8.758,0.130999647457388
8.76,0.137548510294188
8.762,0.143872771486163
8.764,0.15019465644329
8.766,0.156736390575543
8.768,0.16370377301132
8.77,0.17104936740969
8.772,0.178846208981252
8.774,0.187275475661979
8.776,0.196518345387846
8.778,0.206407491958852
8.78,0.215809445202328
8.782,0.22373766220791
8.784,0.229855355551817
8.786,0.236334681320556
8.788,0.245960596709187
8.79,0.259967961524991
8.792,0.274387245086358
8.794,0.285129462260239
8.796,0.292557939985352
8.798,0.298149083218358
8.8,0.30311365888206
8.802,0.307535820747633
8.804,0.311159908638909
8.806,0.313726890747288
8.808,0.314916243780463
8.81,0.314185215915423
8.812,0.311475524140365
8.814,0.307274845738401
8.816,0.302094595396769
8.818,0.29642505419027
8.82,0.290294468589723
8.822,0.283797897066645
8.824,0.277562149566827
8.826,0.272238074518093
8.828,0.268476702587722
8.83,0.266880138218462
8.832,0.266832969524016
8.834,0.26649825902101
8.836,0.263985951494047
8.838,0.257405991727729
8.84,0.245030727808527
8.842,0.2288677837659
8.844,0.21443760790861
8.846,0.202306663582642
8.848,0.188148573597086
8.85,0.172556106835502
8.852,0.161058746483559
8.854,0.154697204425689
8.856,0.149799873517335
8.858,0.142490263177898
8.86,0.129050518487496
8.862,0.109411404722791
8.864,0.0870438725833723
8.866,0.0635490837497961
8.868,0.0399658582790605
8.87,0.0192853840450723
8.872,0.0060177629600561
8.874,0.00122804689516529
8.876,-0.00281071602174149
8.878,-0.015660989763682
8.88,-0.0407600364341858
8.882,-0.0570111322704138
8.884,-0.0364292487064853
8.886,0.0371991184084892
8.888,0.129982142219638
8.89,0.207412668764359
8.892,0.282651879926432
8.894,0.380576360142639
8.896,0.514117645521724
8.898,0.649233804494701
8.9,0.740141754852372
8.902,0.741062091314953
8.904,0.630056901474988
8.906,0.480300536284309
8.908,0.368330097908063
8.91,0.289091291664361
8.912,0.217131973659556
8.914,0.127
8.916,0.00551187214553628
8.918,-0.11144132703003
8.92,-0.193585615626068
8.922,-0.22843984822964
8.924,-0.236324156718392
8.926,-0.23
8.928,-0.219658787808854
8.93,-0.2052117331862
8.932,-0.184
8.934,-0.155658857942114
8.936,-0.129
8.938,-0.112300491341789
8.94,-0.102522462562715
8.942,-0.093799310614784
8.944,-0.0804779678558527
8.946,-0.0618166809782733
8.948,-0.0419850110088955
8.95,-0.0252532012974333
8.952,-0.013295874284988
8.954,-0.00519203150404735
8.956,9.21785958835075e-05
8.958,0.00357365292416462
8.96,0.00587933164404619
8.962,0.00724619817266858
8.964,0.00789428128603703
8.966,0.00804360976015678
8.968,0.00791331043088433
8.97,0.0077017655106561
8.972,0.00758661258848853
8.974,0.00774458731324928
8.976,0.00835242533380609
8.978,0.00958686229902661
8.98,0.0116246338577786
8.982,0.0146303858013305
8.984,0.0184906971961728
8.986,0.0228140803840169
8.988,0.0271969578489757
8.99,0.0312357520751616
8.992,0.0345394846130014
8.994,0.0370069555381451
8.996,0.0388267434514659
8.998,0.0402000260201512
9,0.041327980911388
9.002,0.0424117857923639
9.004,0.0436443578015284
9.006,0.0450286219163644
9.008,0.046377510953388
9.01,0.0474956972003777
9.012,0.048187852945112
9.014,0.0482586504753694
9.016,0.0475269495272602
9.018,0.0461379211485282
9.02,0.0445630476985509
9.022,0.0432879989850372
9.024,0.039387222978794
9.026,0.040936646704522
9.028,0.0436830617570127
9.03,0.0473403679779862
9.032,0.0516046401401072
9.034,0.0561719530160401
9.036,0.0607383813784494
9.038,0.065
9.04,0.0687720951410511
9.042,0.0723467990127424
9.044,0.076135455313908
9.046,0.0805494077433824
9.048,0.0859999999999999
9.05,0.0927444090756269
9.052,0.100423145134258
9.054,0.108522551632918
9.056,0.116528972028636
9.058,0.124027677168191
9.06,0.130999647457388
9.062,0.137548510294188
9.064,0.143872771486163
9.066,0.15019465644329
9.068,0.156736390575543
9.07,0.16370377301132
9.072,0.17104936740969
9.074,0.178846208981252
9.076,0.187275475661979
9.078,0.196518345387846
9.08,0.206407491958852
9.082,0.215809445202328
9.084,0.22373766220791
9.086,0.229855355551817
9.088,0.236334681320556
9.09,0.245960596709187
9.092,0.259967961524991
9.094,0.274387245086358
9.096,0.285129462260239
9.098,0.292557939985352
9.1,0.298149083218358
9.102,0.30311365888206
9.104,0.307535820747633
9.106,0.311159908638909
9.108,0.313726890747288
9.11,0.314916243780463
9.112,0.314185215915423
9.114,0.311475524140365
9.116,0.307274845738401
9.118,0.302094595396769
9.12,0.29642505419027
9.122,0.290294468589723
9.124,0.283797897066645
9.126,0.277562149566827
9.128,0.272238074518093
9.13,0.268476702587722
9.132,0.266880138218462
9.134,0.266832969524016
9.136,0.26649825902101
9.138,0.263985951494047
9.14,0.257405991727729
9.142,0.245030727808527
9.144,0.2288677837659
9.146,0.21443760790861
9.148,0.202306663582642
9.15,0.188148573597086
9.152,0.172556106835502
9.154,0.161058746483559
9.156,0.154697204425689
9.158,0.149799873517335
9.16,0.142490263177898
9.162,0.129050518487496
9.164,0.109411404722791
9.166,0.0870438725833723
9.168,0.0635490837497961
9.17,0.0399658582790605
9.172,0.0192853840450723
9.174,0.0060177629600561
9.176,0.00122804689516529
9.178,-0.00281071602174149
9.18,-0.015660989763682
9.182,-0.0407600364341858
9.184,-0.0570111322704138
9.186,-0.0364292487064853
9.188,0.0371991184084892
9.19,0.129982142219638
9.192,0.207412668764359
9.194,0.282651879926432
9.196,0.380576360142639
9.198,0.514117645521724
9.2,0.649233804494701
9.202,0.740141754852372
9.204,0.741062091314953
9.206,0.630056901474988
9.208,0.480300536284309
9.21,0.368330097908063
9.212,0.289091291664361
9.214,0.217131973659556
9.216,0.127
9.218,0.00551187214553628
9.22,-0.11144132703003
9.222,-0.193585615626068
9.224,-0.22843984822964
9.226,-0.236324156718392
9.228,-0.23
9.23,-0.219658787808854
9.232,-0.2052117331862
9.234,-0.184
9.236,-0.155658857942114
9.238,-0.129
9.24,-0.112300491341789
9.242,-0.102522462562715
9.244,-0.093799310614784
9.246,-0.0804779678558527
9.248,-0.0618166809782733
9.25,-0.0419850110088955
9.252,-0.0252532012974333
9.254,-0.013295874284988
9.256,-0.00519203150404735
9.258,9.21785958835075e-05
9.26,0.00357365292416462
9.262,0.00587933164404619
9.264,0.00724619817266858
9.266,0.00789428128603703
9.268,0.00804360976015678
9.27,0.00791331043088433
9.272,0.0077017655106561
9.274,0.00758661258848853
9.276,0.00774458731324928
9.278,0.00835242533380609
9.28,0.00958686229902661
9.282,0.0116246338577786
9.284,0.0146303858013305
9.286,0.0184906971961728
9.288,0.0228140803840169
9.29,0.0271969578489757
9.292,0.0312357520751616
9.294,0.0345394846130014
9.296,0.0370069555381451
9.298,0.0388267434514659
9.3,0.0402000260201512
9.302,0.041327980911388
9.304,0.0424117857923639
9.306,0.0436443578015284
9.308,0.0450286219163644
9.31,0.046377510953388
9.312,0.0474956972003777
9.314,0.048187852945112
9.316,0.0482586504753694
9.318,0.0475269495272602
9.32,0.0461379211485282
9.322,0.0445630476985509
9.324,0.0432879989850372
9.326,0.039387222978794
9.328,0.040936646704522
9.33,0.0436830617570127
9.332,0.0473403679779862
9.334,0.0516046401401072
9.336,0.0561719530160401
9.338,0.0607383813784494
9.34,0.065
9.342,0.0687720951410511
9.344,0.0723467990127424
9.346,0.076135455313908
9.348,0.0805494077433824
9.35,0.0859999999999999
9.352,0.0927444090756269
9.354,0.100423145134258
9.356,0.108522551632918
9.358,0.116528972028636
9.36,0.124027677168191
9.362,0.130999647457388
9.364,0.137548510294188
9.366,0.143872771486163
9.368,0.15019465644329
9.37,0.156736390575543
9.372,0.16370377301132
9.374,0.17104936740969
9.376,0.178846208981252
9.378,0.187275475661979
9.38,0.196518345387846
9.382,0.206407491958852
9.384,0.215809445202328
9.386,0.22373766220791
9.388,0.229855355551817
9.39,0.236334681320556
9.392,0.245960596709187
9.394,0.259967961524991
9.396,0.274387245086358
9.398,0.285129462260239
9.4,0.292557939985352
9.402,0.298149083218358
9.404,0.30311365888206
9.406,0.307535820747633
9.408,0.311159908638909
9.41,0.313726890747288
9.412,0.314916243780463
9.414,0.314185215915423
9.416,0.311475524140365
9.418,0.307274845738401
9.42,0.302094595396769
9.422,0.29642505419027
9.424,0.290294468589723
9.426,0.283797897066645
9.428,0.277562149566827
9.43,0.272238074518093
9.432,0.268476702587722
9.434,0.266880138218462
9.436,0.266832969524016
9.438,0.26649825902101
9.44,0.263985951494047
9.442,0.257405991727729
9.444,0.245030727808527
9.446,0.2288677837659
9.448,0.21443760790861
9.45,0.202306663582642
9.452,0.188148573597086
9.454,0.172556106835502
9.456,0.161058746483559
9.458,0.154697204425689
9.46,0.149799873517335
9.462,0.142490263177898
9.464,0.129050518487496
9.466,0.109411404722791
9.468,0.0870438725833723
9.47,0.0635490837497961
9.472,0.0399658582790605
9.474,0.0192853840450723
9.476,0.0060177629600561
9.478,0.00122804689516529
9.48,-0.00281071602174149
9.482,-0.015660989763682
9.484,-0.0407600364341858
9.486,-0.0570111322704138
9.488,-0.0364292487064853
9.49,0.0371991184084892
9.492,0.129982142219638
9.494,0.207412668764359
9.496,0.282651879926432
9.498,0.380576360142639
9.5,0.514117645521724
9.502,0.649233804494701
9.504,0.740141754852372
9.506,0.741062091314953
9.508,0.630056901474988
9.51,0.480300536284309
9.512,0.368330097908063
9.514,0.289091291664361
9.516,0.217131973659556
9.518,0.127
9.52,0.00551187214553628
9.522,-0.11144132703003
9.524,-0.193585615626068
9.526,-0.22843984822964
9.528,-0.236324156718392
9.53,-0.23
9.532,-0.219658787808854
9.534,-0.2052117331862
9.536,-0.184
9.538,-0.155658857942114
9.54,-0.129
9.542,-0.112300491341789
9.544,-0.102522462562715
9.546,-0.093799310614784
9.548,-0.0804779678558527
9.55,-0.0618166809782733
9.552,-0.0419850110088955
9.554,-0.0252532012974333
9.556,-0.013295874284988
9.558,-0.00519203150404735
9.56,9.21785958835075e-05
9.562,0.00357365292416462
9.564,0.00587933164404619
9.566,0.00724619817266858
9.568,0.00789428128603703
9.57,0.00804360976015678
9.572,0.00791331043088433
9.574,0.0077017655106561
9.576,0.00758661258848853
9.578,0.00774458731324928
9.58,0.00835242533380609
9.582,0.00958686229902661
9.584,0.0116246338577786
9.586,0.0146303858013305
9.588,0.0184906971961728
9.59,0.0228140803840169
9.592,0.0271969578489757
9.594,0.0312357520751616
9.596,0.0345394846130014
9.598,0.0370069555381451
9.6,0.0388267434514659
9.602,0.0402000260201512
9.604,0.041327980911388
9.606,0.0424117857923639
9.608,0.0436443578015284
9.61,0.0450286219163644
9.612,0.046377510953388
9.614,0.0474956972003777
9.616,0.048187852945112
9.618,0.0482586504753694
9.62,0.0475269495272602
9.622,0.0461379211485282
9.624,0.0445630476985509
9.626,0.0432879989850372
9.628,0.039387222978794
9.63,0.040936646704522
9.632,0.0436830617570127
9.634,0.0473403679779862
9.636,0.0516046401401072
9.638,0.0561719530160401
9.64,0.0607383813784494
9.642,0.065
9.644,0.0687720951410511
9.646,0.0723467990127424
9.648,0.076135455313908
9.65,0.0805494077433824
9.652,0.0859999999999999
9.654,0.0927444090756269
9.656,0.100423145134258
9.658,0.108522551632918
9.66,0.116528972028636
9.662,0.124027677168191
9.664,0.130999647457388
9.666,0.137548510294188
9.668,0.143872771486163
9.67,0.15019465644329
9.672,0.156736390575543
9.674,0.16370377301132
9.676,0.17104936740969
9.678,0.178846208981252
9.68,0.187275475661979
9.682,0.196518345387846
9.684,0.206407491958852
9.686,0.215809445202328
9.688,0.22373766220791
9.69,0.229855355551817
9.692,0.236334681320556
9.694,0.245960596709187
9.696,0.259967961524991
9.698,0.274387245086358
9.7,0.285129462260239
9.702,0.292557939985352
9.704,0.298149083218358
9.706,0.30311365888206
9.708,0.307535820747633
9.71,0.311159908638909
9.712,0.313726890747288
9.714,0.314916243780463
9.716,0.314185215915423
9.718,0.311475524140365
9.72,0.307274845738401
9.722,0.302094595396769
9.724,0.29642505419027
9.726,0.290294468589723
9.728,0.283797897066645
9.73,0.277562149566827
9.732,0.272238074518093
9.734,0.268476702587722
9.736,0.266880138218462
9.738,0.266832969524016
9.74,0.26649825902101
9.742,0.263985951494047
9.744,0.257405991727729
9.746,0.245030727808527
9.748,0.2288677837659
9.75,0.21443760790861
9.752,0.202306663582642
9.754,0.188148573597086
9.756,0.172556106835502
9.758,0.161058746483559
9.76,0.154697204425689
9.762,0.149799873517335
9.764,0.142490263177898
9.766,0.129050518487496
9.768,0.109411404722791
9.77,0.0870438725833723
9.772,0.0635490837497961
9.774,0.0399658582790605
9.776,0.0192853840450723
9.778,0.0060177629600561
9.78,0.00122804689516529
9.782,-0.00281071602174149
9.784,-0.015660989763682
9.786,-0.0407600364341858
9.788,-0.0570111322704138
9.79,-0.0364292487064853
9.792,0.0371991184084892
9.794,0.129982142219638
9.796,0.207412668764359
9.798,0.282651879926432
9.8,0.380576360142639
9.802,0.514117645521724
9.804,0.649233804494701
9.806,0.740141754852372
9.808,0.741062091314953
9.81,0.630056901474988
9.812,0.480300536284309
9.814,0.368330097908063
9.816,0.289091291664361
9.818,0.217131973659556
9.82,0.127
9.822,0.00551187214553628
9.824,-0.11144132703003
9.826,-0.193585615626068
9.828,-0.22843984822964
9.83,-0.236324156718392
9.832,-0.23
9.834,-0.219658787808854
9.836,-0.2052117331862
9.838,-0.184
9.84,-0.155658857942114
9.842,-0.129
9.844,-0.112300491341789
9.846,-0.102522462562715
9.848,-0.093799310614784
9.85,-0.0804779678558527
9.852,-0.0618166809782733
9.854,-0.0419850110088955
9.856,-0.0252532012974333
9.858,-0.013295874284988
9.86,-0.00519203150404735
9.862,9.21785958835075e-05
9.864,0.00357365292416462
9.866,0.00587933164404619
9.868,0.00724619817266858
9.87,0.00789428128603703
9.872,0.00804360976015678
9.874,0.00791331043088433
9.876,0.0077017655106561
9.878,0.00758661258848853
9.88,0.00774458731324928
9.882,0.00835242533380609
9.884,0.00958686229902661
9.886,0.0116246338577786
9.888,0.0146303858013305
9.89,0.0184906971961728
9.892,0.0228140803840169
9.894,0.0271969578489757
9.896,0.0312357520751616
9.898,0.0345394846130014
9.9,0.0370069555381451
9.902,0.0388267434514659
9.904,0.0402000260201512
9.906,0.041327980911388
9.908,0.0424117857923639
9.91,0.0436443578015284
9.912,0.0450286219163644
9.914,0.046377510953388
9.916,0.0474956972003777
9.918,0.048187852945112
9.92,0.0482586504753694
9.922,0.0475269495272602
9.924,0.0461379211485282
9.926,0.0445630476985509
9.928,0.0432879989850372
9.93,0.039387222978794
9.932,0.040936646704522
9.934,0.0436830617570127
9.936,0.0473403679779862
9.938,0.0516046401401072
9.94,0.0561719530160401
9.942,0.0607383813784494
9.944,0.065
9.946,0.0687720951410511
9.948,0.0723467990127424
9.95,0.076135455313908
9.952,0.0805494077433824
9.954,0.0859999999999999
9.956,0.0927444090756269
9.958,0.100423145134258
9.96,0.108522551632918
9.962,0.116528972028636
9.964,0.124027677168191
9.966,0.130999647457388
9.968,0.137548510294188
9.97,0.143872771486163
9.972,0.15019465644329
9.974,0.156736390575543
9.976,0.16370377301132
9.978,0.17104936740969
9.98,0.178846208981252
9.982,0.187275475661979
9.984,0.196518345387846
9.986,0.206407491958852
9.988,0.215809445202328
9.99,0.22373766220791
9.992,0.229855355551817
9.994,0.236334681320556
9.996,0.245960596709187
9.998,0.259967961524991
10,0.274387245086358
10.002,0.285129462260239
10.004,0.292557939985352
10.006,0.298149083218358
10.008,0.30311365888206
10.01,0.307535820747633
10.012,0.311159908638909
10.014,0.313726890747288
10.016,0.314916243780463
10.018,0.314185215915423
10.02,0.311475524140365
10.022,0.307274845738401
