0.002,0
0.004,0
0.006,0
0.008,0
0.01,0
0.012,0
0.014,0
0.016,0
0.018,0
0.02,0
0.022,0
0.024,0
0.026,0
0.028,0
0.03,0
0.032,0
0.034,0
0.036,0
0.038,0
0.04,0
0.042,0
0.044,0
0.046,0
0.048,0
0.05,0
0.052,0
0.054,0
0.056,0
0.058,0
0.06,0
0.062,0
0.064,0
0.066,0
0.068,0
0.07,0
0.072,0
0.074,0
0.076,0
0.078,0
0.08,0
0.082,0
0.084,0
0.086,0
0.088,0
0.09,0
0.092,0
0.094,0
0.096,0
0.098,0
0.1,0
0.102,0
0.104,0
0.106,0
0.108,0
0.11,0
0.112,0
0.114,0
0.116,0
0.118,0
0.12,0
0.122,0
0.124,0
0.126,0
0.128,0
0.13,0
0.132,0
0.134,0
0.136,0
0.138,0
0.14,0
0.142,0
0.144,0
0.146,0
0.148,0
0.15,0
0.152,0
0.154,0
0.156,0
0.158,0
0.16,0
0.162,0
0.164,0
0.166,0
0.168,0
0.17,0
0.172,0
0.174,0
0.176,0
0.178,0
0.18,0
0.182,0
0.184,0
0.186,0
0.188,0
0.19,0
0.192,0
0.194,0
0.196,0
0.198,0
0.2,0
0.202,0
0.204,0
0.206,0
0.208,0
0.21,0
0.212,0
0.214,0
0.216,0
0.218,0
0.22,0
0.222,0
0.224,0
0.226,0
0.228,0
0.23,0
0.232,0
0.234,0
0.236,0
0.238,0
0.24,0
0.242,0
0.244,0
0.246,0
0.248,0
0.25,0
0.252,0
0.254,0
0.256,0
0.258,0
0.26,0
0.262,0
0.264,0
0.266,0
0.268,0
0.27,0
0.272,0
0.274,0
0.276,0
0.278,0
0.28,0
0.282,0
0.284,0
0.286,0
0.288,0
0.29,0
0.292,0
0.294,0
0.296,0
0.298,0
0.3,0
0.302,0
0.304,0
0.306,0
0.308,0
0.31,0
0.312,0
0.314,0
0.316,0
0.318,0
0.32,0
0.322,0
0.324,0
0.326,0
0.328,0
0.33,0
0.332,0
0.334,0
0.336,0
0.338,0
0.34,0
0.342,0
0.344,0
0.346,0
0.348,0
0.35,0
0.352,0
0.354,0
0.356,0
0.358,0
0.36,0
0.362,0
0.364,0
0.366,0
0.368,0
0.37,0
0.372,0
0.374,0
0.376,0
0.378,0
0.38,0
0.382,0
0.384,0
0.386,0
0.388,0
0.39,0
0.392,0
0.394,0
0.396,0
0.398,0
0.4,0
0.402,0
0.404,0
0.406,0
0.408,0
0.41,0
0.412,0
0.414,0
0.416,0
0.418,0
0.42,0
0.422,0
0.424,0
0.426,0
0.428,0
0.43,0
0.432,0
0.434,0
0.436,0
0.438,0
0.44,0
0.442,0
0.444,0
0.446,0
0.448,0
0.45,0
0.452,0
0.454,0
0.456,0
0.458,0
0.46,0
0.462,0
0.464,0
0.466,0
0.468,0
0.47,0
0.472,0
0.474,0
0.476,0
0.478,0
0.48,0
0.482,0
0.484,0
0.486,0
0.488,0
0.49,0
0.492,0
0.494,0
0.496,0
0.498,0
0.5,0
0.502,0
0.504,0
0.506,0
0.508,0
0.51,0
0.512,0
0.514,0
0.516,0
0.518,0
0.52,0
0.522,0
0.524,0
0.526,0
0.528,0
0.53,0
0.532,0
0.534,0
0.536,0
0.538,0
0.54,0
0.542,0
0.544,0
0.546,0
0.548,0
0.55,0
0.552,0
0.554,0
0.556,0
0.558,0
0.56,0
0.562,0
0.564,0
0.566,0
0.568,0
0.57,0
0.572,0
0.574,0
0.576,0
0.578,0
0.58,0
0.582,0
0.584,0
0.586,0
0.588,0
0.59,0
0.592,0
0.594,0
0.596,0
0.598,0
0.6,0
0.602,0
0.604,0
0.606,0
0.608,0
0.61,0
0.612,0
0.614,0
0.616,0
0.618,0
0.62,0
0.622,0
0.624,0
0.626,0
0.628,0
0.63,0
0.632,0
0.634,0
0.636,0
0.638,0
0.64,0
0.642,0
0.644,0
0.646,0
0.648,0
0.65,0
0.652,0
0.654,0
0.656,0
0.658,0
0.66,0
0.662,0
0.664,0
0.666,0
0.668,0
0.67,0
0.672,0
0.674,0
0.676,0
0.678,0
0.68,0
0.682,0
0.684,0
0.686,0
0.688,0
0.69,0
0.692,0
0.694,0
0.696,0
0.698,0
0.7,0
0.702,0
0.704,0
0.706,0
0.708,0
0.71,0
0.712,0
0.714,0
0.716,0
0.718,0
0.72,0
0.722,0
0.724,0
0.726,0
0.728,0
0.73,0
0.732,0
0.734,0
0.736,0
0.738,0
0.74,0
0.742,0
0.744,0
0.746,0
0.748,0
0.75,0
0.752,-0.00341122183690235
0.754,-0.00262558322466033
0.756,-0.00195416071886167
0.758,-0.00133094603989153
0.76,-0.000689930908135128
0.762,3.4892956022381e-05
0.764,0.00090953383219583
0.766,0.002
0.768,0.00337229973904968
0.77,0.00509244132895975
0.772,0.00722643304934489
0.774,0.00984028317982005
0.776,0.013
0.778,0.0167025652305922
0.78,0.0206688543566754
0.782,0.0245507163044208
0.784,0.028
0.786,0.0307674817593395
0.788,0.0329996474573879
0.79,0.0349419103588489
0.792,0.0368396837284266
0.794,0.0389383808308247
0.796,0.0414834149307472
0.798,0.0447037730113203
0.8,0.0484506375793874
0.802,0.0521973866655089
0.804,0.0554009720186675
0.806,0.0575183453878461
0.808,0.0580289781310401
0.81,0.0569302926135359
0.812,0.0547376622079105
0.814,0.0519889798957538
0.816,0.0492221386586554
0.818,0.0469605967091873
0.82,0.045395812572507
0.822,0.0443872450863583
0.824,0.0437799183194667
0.826,0.043418856340558
0.828,0.0431490832183577
0.83,0.0428122513891604
0.832,0.0421724657433454
0.834,0.0409162836253769
0.836,0.0387268907472877
0.838,0.0352874728211109
0.84,0.0303049529630062
0.842,0.0240322145840481
0.844,0.0172681013902257
0.846,0.0108351944916548
0.848,0.00553494138601612
0.85,0.00168271648497476
0.852,-0.000892178885819161
0.854,-0.00238157701315089
0.856,-0.00297731018380587
0.858,-0.00287102844511333
0.86,-0.00225019033691159
0.862,-0.00129806289154827
0.864,-0.000197730901914883
0.866,0.000867720839097141
0.868,0.00171520753859633
0.87,0.00216901322331536
0.872,0.0022229047713434
0.874,0.00204013191212593
0.876,0.00179131319473264
0.878,0.00164706716823321
0.88,0.00177801238169734
0.882,0.00233986891277149
0.884,0.00314569199636844
0.886,0.00366587202466734
0.888,0.00335590091842403
0.89,0.00167127059839439
0.892,-0.00193252701466562
0.894,-0.00800000000000012
0.896,-0.0166100813235882
0.898,-0.0259794034983483
0.9,-0.0338590239239344
0.902,-0.038
0.904,-0.0379125877881391
0.906,-0.0401438379977072
0.908,-0.053
0.91,-0.078662121296825
0.912,-0.0948104419120364
0.914,-0.073
0.916,0.00267953893637424
0.918,0.098
0.92,0.178117881186059
0.922,0.255866881452979
0.924,0.356000000000002
0.926,0.491529085386149
0.928,0.628501383609573
0.93,0.721222990028212
0.932,0.724
0.934,0.614895432378527
0.936,0.467
0.938,0.356763489984521
0.94,0.279044292605157
0.942,0.208302948923214
0.944,0.119
0.946,-0.00209794443755174
0.948,-0.119
0.95,-0.193585615626068
0.952,-0.22843984822964
0.954,-0.236324156718392
0.956,-0.23
0.958,-0.219658787808854
0.96,-0.2052117331862
0.962,-0.184
0.964,-0.155658857942114
0.966,-0.129
0.968,-0.112300491341789
0.97,-0.102522462562715
0.972,-0.093799310614784
0.974,-0.0804779678558527
0.976,-0.0618166809782733
0.978,-0.0419850110088955
0.98,-0.0252532012974333
0.982,-0.013295874284988
0.984,-0.00519203150404735
0.986,9.21785958835075e-05
0.988,0.00357365292416462
0.99,0.00587933164404619
0.992,0.00724619817266858
0.994,0.00789428128603703
0.996,0.00804360976015678
0.998,0.00791331043088433
1,0.0077017655106561
1.002,0.00758661258848853
1.004,0.00774458731324928
1.006,0.00835242533380609
1.008,0.00958686229902661
1.01,0.0116246338577786
1.012,0.0146303858013305
1.014,0.0184906971961728
1.016,0.0228140803840169
1.018,0.0271969578489757
1.02,0.0312357520751616
1.022,0.0345394846130014
1.024,0.0370069555381451
1.026,0.0388267434514659
1.028,0.0402000260201512
1.03,0.041327980911388
1.032,0.0424117857923639
1.034,0.0436443578015284
1.036,0.0450286219163644
1.038,0.046377510953388
1.04,0.0474956972003777
1.042,0.048187852945112
1.044,0.0482586504753694
1.046,0.0475269495272602
1.048,0.0461379211485282
1.05,0.0445630476985509
1.052,0.0432879989850372
1.054,0.0427984448156964
1.056,0.0435622299291824
1.058,0.0456372224758744
1.06,0.0486713140178778
1.062,0.0522945710482423
1.064,0.0561370600600177
1.066,0.0598288475462536
1.068,0.063
1.07,0.0653997954020015
1.072,0.0672543576837827
1.074,0.0689090222645631
1.076,0.0707091245635624
1.078,0.073
1.08,0.0760418438450347
1.082,0.0797542907775822
1.084,0.0839718353284976
1.086,0.0885289720286356
1.088,0.0932601954088514
1.09,0.0979999999999999
1.092,0.102606599935339
1.094,0.107033087757736
1.096,0.111256275612465
1.098,0.115252975644796
1.1,0.119
1.102,0.122598729830303
1.104,0.126648822315743
1.106,0.131874503643311
1.108,0.139
1.11,0.148378513827812
1.112,0.158879152588792
1.114,0.169
1.116,0.177866375656063
1.118,0.1871125426619
1.12,0.199
1.122,0.214572148952484
1.124,0.23
1.126,0.241349543940772
1.128,0.249139083644794
1.13,0.255
1.132,0.2603014074929
1.134,0.265363355004288
1.136,0.270243625013532
1.138,0.275
1.14,0.279628770959352
1.142,0.283880262952417
1.144,0.287443309556317
1.146,0.290006744348176
1.148,0.291259400905114
1.15,0.290890112804254
1.152,0.288611752104749
1.154,0.284690075952464
1.156,0.279943726579978
1.158,0.275215384701899
1.16,0.271347731032835
1.162,0.269130328555373
1.164,0.268131032415564
1.166,0.266695989922925
1.168,0.26311823065495
1.17,0.255690784189132
1.172,0.242861714585212
1.174,0.226644878994557
1.176,0.212397475996484
1.178,0.20051535038791
1.18,0.186501506428853
1.182,0.170778094453804
1.184,0.158718877570788
1.186,0.151551512429321
1.188,0.146134001492668
1.19,0.139134362259474
1.192,0.127379247889102
1.194,0.111343931737456
1.196,0.0950438725833724
1.198,0.0801591650733843
1.2,0.0659452617774088
1.202,0.0531444079690067
1.204,0.0440177629600561
1.206,0.0391406346833044
1.208,0.0373331219759657
1.21,0.037339010236318
1.212,0.0379020848626392
1.214,0.0377993096416226
1.216,0.0365707512935147
1.218,0.0345195794721149
1.22,0.0319821422196385
1.222,0.0292947875783001
1.224,0.0267849984734534
1.226,0.0245763601426369
1.228,0.0225885601355744
1.23,0.0207324208851281
1.232,0.0189187648241601
1.234,0.0170620913149532
1.236,0.0151614690964613
1.238,0.0133005362843088
1.24,0.0115666079235413
1.242,0.0100469990592038
1.244,0.00882902473634162
1.246,0.00800000000000001
1.248,0.00760981658308801
1.25,0.00755867296996993
1.252,0
1.254,0
1.256,0
1.258,0
1.26,0
1.262,0
1.264,0
1.266,0
1.268,0
1.27,0
1.272,0
1.274,0
1.276,0
1.278,0
1.28,0
1.282,0
1.284,0
1.286,0
1.288,0
1.29,0
1.292,0
1.294,0
1.296,0
1.298,0
1.3,0
1.302,0
1.304,0
1.306,0
1.308,0
1.31,0
1.312,0
1.314,0
1.316,0
1.318,0
1.32,0
1.322,0
1.324,0
1.326,0
1.328,0
1.33,0
1.332,0
1.334,0
1.336,0
1.338,0
1.34,0
1.342,0
1.344,0
1.346,0
1.348,0
1.35,0
1.352,0
1.354,0
1.356,0
1.358,0
1.36,0
1.362,0
1.364,0
1.366,0
1.368,0
1.37,0
1.372,0
1.374,0
1.376,0
1.378,0
1.38,0
1.382,0
1.384,0
1.386,0
1.388,0
1.39,0
1.392,0
1.394,0
1.396,0
1.398,0
1.4,0
1.402,0
1.404,0
1.406,0
1.408,0
1.41,0
1.412,0
1.414,0
1.416,0
1.418,0
1.42,0
1.422,0
1.424,0
1.426,0
1.428,0
1.43,0
1.432,0
1.434,0
1.436,0
1.438,0
1.44,0
1.442,0
1.444,0
1.446,0
1.448,0
1.45,0
1.452,0
1.454,0
1.456,0
1.458,0
1.46,0
1.462,0
1.464,0
1.466,0
1.468,0
1.47,0
1.472,0
1.474,0
1.476,0
1.478,0
1.48,0
1.482,0
1.484,0
1.486,0
1.488,0
1.49,0
1.492,0
1.494,0
1.496,0
1.498,0
1.5,0
1.502,0
1.504,0
1.506,0
1.508,0
1.51,0
1.512,0
1.514,0
1.516,0
1.518,0
1.52,0
1.522,0
1.524,0
1.526,0
1.528,0
1.53,0
1.532,0
1.534,0
1.536,0
1.538,0
1.54,0
1.542,0
1.544,0
1.546,0
1.548,0
1.55,0
1.552,0
1.554,0
1.556,0
1.558,0
1.56,0
1.562,0
1.564,0
1.566,0
1.568,0
1.57,0
1.572,0
1.574,0
1.576,0
1.578,0
1.58,0
1.582,0
1.584,0
1.586,0
1.588,0
1.59,0
1.592,0
1.594,0
1.596,0
1.598,0
1.6,0
1.602,0
1.604,0
1.606,0
1.608,0
1.61,0
1.612,0
1.614,0
1.616,0
1.618,0
1.62,0
1.622,0
1.624,0
1.626,0
1.628,0
1.63,0
1.632,0
1.634,0
1.636,0
1.638,0
1.64,0
1.642,0
1.644,0
1.646,0
1.648,0
1.65,0
1.652,0
1.654,0
1.656,0
1.658,0
1.66,0
1.662,0
1.664,0
1.666,0
1.668,0
1.67,0
1.672,0
1.674,0
1.676,0
1.678,0
1.68,0
1.682,0
1.684,0
1.686,0
1.688,0
1.69,0
1.692,0
1.694,0
1.696,-0.00341122183690235
1.698,-0.00262558322466033
1.7,-0.00195416071886167
1.702,-0.00133094603989153
1.704,-0.000689930908135128
1.706,3.4892956022381e-05
1.708,0.00090953383219583
1.71,0.002
1.712,0.00337229973904968
1.714,0.00509244132895975
1.716,0.00722643304934489
1.718,0.00984028317982005
1.72,0.013
1.722,0.0167025652305922
1.724,0.0206688543566754
1.726,0.0245507163044208
1.728,0.028
1.73,0.0307674817593395
1.732,0.0329996474573879
1.734,0.0349419103588489
1.736,0.0368396837284266
1.738,0.0389383808308247
1.74,0.0414834149307472
1.742,0.0447037730113203
1.744,0.0484506375793874
1.746,0.0521973866655089
1.748,0.0554009720186675
1.75,0.0575183453878461
1.752,0.0580289781310401
1.754,0.0569302926135359
1.756,0.0547376622079105
1.758,0.0519889798957538
1.76,0.0492221386586554
1.762,0.0469605967091873
1.764,0.045395812572507
1.766,0.0443872450863583
1.768,0.0437799183194667
1.77,0.043418856340558
1.772,0.0431490832183577
1.774,0.0428122513891604
1.776,0.0421724657433454
1.778,0.0409162836253769
1.78,0.0387268907472877
1.782,0.0352874728211109
1.784,0.0303049529630062
1.786,0.0240322145840481
1.788,0.0172681013902257
1.79,0.0108351944916548
1.792,0.00553494138601612
1.794,0.00168271648497476
1.796,-0.000892178885819161
1.798,-0.00238157701315089
1.8,-0.00297731018380587
1.802,-0.00287102844511333
1.804,-0.00225019033691159
1.806,-0.00129806289154827
1.808,-0.000197730901914883
1.81,0.000867720839097141
1.812,0.00171520753859633
1.814,0.00216901322331536
1.816,0.0022229047713434
1.818,0.00204013191212593
1.82,0.00179131319473264
1.822,0.00164706716823321
1.824,0.00177801238169734
1.826,0.00233986891277149
1.828,0.00314569199636844
1.83,0.00366587202466734
1.832,0.00335590091842403
1.834,0.00167127059839439
1.836,-0.00193252701466562
1.838,-0.00800000000000012
1.84,-0.0166100813235882
1.842,-0.0259794034983483
1.844,-0.0338590239239344
1.846,-0.038
1.848,-0.0379125877881391
1.85,-0.0401438379977072
1.852,-0.053
1.854,-0.078662121296825
1.856,-0.0948104419120364
1.858,-0.073
1.86,0.00267953893637424
1.862,0.098
1.864,0.178117881186059
1.866,0.255866881452979
1.868,0.356000000000002
1.87,0.491529085386149
1.872,0.628501383609573
1.874,0.721222990028212
1.876,0.724
1.878,0.614895432378527
1.88,0.467
1.882,0.356763489984521
1.884,0.279044292605157
1.886,0.208302948923214
1.888,0.119
1.89,-0.00209794443755174
1.892,-0.119
1.894,-0.193585615626068
1.896,-0.22843984822964
1.898,-0.236324156718392
1.9,-0.23
1.902,-0.219658787808854
1.904,-0.2052117331862
1.906,-0.184
1.908,-0.155658857942114
1.91,-0.129
1.912,-0.112300491341789
1.914,-0.102522462562715
1.916,-0.093799310614784
1.918,-0.0804779678558527
1.92,-0.0618166809782733
1.922,-0.0419850110088955
1.924,-0.0252532012974333
1.926,-0.013295874284988
1.928,-0.00519203150404735
1.93,9.21785958835075e-05
1.932,0.00357365292416462
1.934,0.00587933164404619
1.936,0.00724619817266858
1.938,0.00789428128603703
1.94,0.00804360976015678
1.942,0.00791331043088433
1.944,0.0077017655106561
1.946,0.00758661258848853
1.948,0.00774458731324928
1.95,0.00835242533380609
1.952,0.00958686229902661
1.954,0.0116246338577786
1.956,0.0146303858013305
1.958,0.0184906971961728
1.96,0.0228140803840169
1.962,0.0271969578489757
1.964,0.0312357520751616
1.966,0.0345394846130014
1.968,0.0370069555381451
1.97,0.0388267434514659
1.972,0.0402000260201512
1.974,0.041327980911388
1.976,0.0424117857923639
1.978,0.0436443578015284
1.98,0.0450286219163644
1.982,0.046377510953388
1.984,0.0474956972003777
1.986,0.048187852945112
1.988,0.0482586504753694
1.99,0.0475269495272602
1.992,0.0461379211485282
1.994,0.0445630476985509
1.996,0.0432879989850372
1.998,0.0427984448156964
2,0.0435622299291824
2.002,0.0456372224758744
2.004,0.0486713140178778
2.006,0.0522945710482423
2.008,0.0561370600600177
2.01,0.0598288475462536
2.012,0.063
2.014,0.0653997954020015
2.016,0.0672543576837827
2.018,0.0689090222645631
2.02,0.0707091245635624
2.022,0.073
2.024,0.0760418438450347
2.026,0.0797542907775822
2.028,0.0839718353284976
2.03,0.0885289720286356
2.032,0.0932601954088514
2.034,0.0979999999999999
2.036,0.102606599935339
2.038,0.107033087757736
2.04,0.111256275612465
2.042,0.115252975644796
2.044,0.119
2.046,0.122598729830303
2.048,0.126648822315743
2.05,0.131874503643311
2.052,0.139
2.054,0.148378513827812
2.056,0.158879152588792
2.058,0.169
2.06,0.177866375656063
2.062,0.1871125426619
2.064,0.199
2.066,0.214572148952484
2.068,0.23
2.07,0.241349543940772
2.072,0.249139083644794
2.074,0.255
2.076,0.2603014074929
2.078,0.265363355004288
2.08,0.270243625013532
2.082,0.275
2.084,0.279628770959352
2.086,0.283880262952417
2.088,0.287443309556317
2.09,0.290006744348176
2.092,0.291259400905114
2.094,0.290890112804254
2.096,0.288611752104749
2.098,0.284690075952464
2.1,0.279943726579978
2.102,0.275215384701899
2.104,0.271347731032835
2.106,0.269130328555373
2.108,0.268131032415564
2.11,0.266695989922925
2.112,0.26311823065495
2.114,0.255690784189132
2.116,0.242861714585212
2.118,0.226644878994557
2.12,0.212397475996484
2.122,0.20051535038791
2.124,0.186501506428853
2.126,0.170778094453804
2.128,0.158718877570788
2.13,0.151551512429321
2.132,0.146134001492668
2.134,0.139134362259474
2.136,0.127379247889102
2.138,0.111343931737456
2.14,0.0950438725833724
2.142,0.0801591650733843
2.144,0.0659452617774088
2.146,0.0531444079690067
2.148,0.0440177629600561
2.15,0.0391406346833044
2.152,0.0373331219759657
2.154,0.037339010236318
2.156,0.0379020848626392
2.158,0.0377993096416226
2.16,0.0365707512935147
2.162,0.0345195794721149
2.164,0.0319821422196385
2.166,0.0292947875783001
2.168,0.0267849984734534
2.17,0.0245763601426369
2.172,0.0225885601355744
2.174,0.0207324208851281
2.176,0.0189187648241601
2.178,0.0170620913149532
2.18,0.0151614690964613
2.182,0.0133005362843088
2.184,0.0115666079235413
2.186,0.0100469990592038
2.188,0.00882902473634162
2.19,0.00800000000000001
2.192,0.00760981658308801
2.194,0.00755867296996993
2.196,0
2.198,0
2.2,0
2.202,0
2.204,0
2.206,0
2.208,0
2.21,0
2.212,0
2.214,0
2.216,0
2.218,0
2.22,0
2.222,0
2.224,0
2.226,0
2.228,0
2.23,0
2.232,0
2.234,0
2.236,0
2.238,0
2.24,0
2.242,0
2.244,0
2.246,0
2.248,0
2.25,0
2.252,0
2.254,0
2.256,0
2.258,0
2.26,0
2.262,0
2.264,0
2.266,0
2.268,0
2.27,0
2.272,0
2.274,0
2.276,0
2.278,0
2.28,0
2.282,0
2.284,0
2.286,0
2.288,0
2.29,0
2.292,0
2.294,0
2.296,0
2.298,0
2.3,0
2.302,0
2.304,0
2.306,0
2.308,0
2.31,0
2.312,0
2.314,0
2.316,0
2.318,0
2.32,0
2.322,0
2.324,0
2.326,0
2.328,0
2.33,0
2.332,0
2.334,0
2.336,0
2.338,0
2.34,0
2.342,0
2.344,0
2.346,0
2.348,0
2.35,0
2.352,0
2.354,0
2.356,0
2.358,0
2.36,0
2.362,0
2.364,0
2.366,0
2.368,0
2.37,0
2.372,0
2.374,0
2.376,0
2.378,0
2.38,0
2.382,0
2.384,0
2.386,0
2.388,0
2.39,0
2.392,0
2.394,0
2.396,0
2.398,0
2.4,0
2.402,0
2.404,0
2.406,0
2.408,0
2.41,0
2.412,0
2.414,0
2.416,0
2.418,0
2.42,0
2.422,0
2.424,0
2.426,0
2.428,0
2.43,0
2.432,0
2.434,0
2.436,0
2.438,0
2.44,0
2.442,0
2.444,0
2.446,0
2.448,0
2.45,0
2.452,0
2.454,0
2.456,0
2.458,0
2.46,0
2.462,0
2.464,0
2.466,0
2.468,0
2.47,0
2.472,0
2.474,0
2.476,0
2.478,0
2.48,0
2.482,0
2.484,0
2.486,0
2.488,0
2.49,0
2.492,0
2.494,0
2.496,0
2.498,0
2.5,0
2.502,0
2.504,0
2.506,0
2.508,0
2.51,0
2.512,0
2.514,0
2.516,0
2.518,0
2.52,0
2.522,0
2.524,0
2.526,0
2.528,0
2.53,0
2.532,0
2.534,0
2.536,0
2.538,0
2.54,0
2.542,0
2.544,0
2.546,0
2.548,0
2.55,0
2.552,0
2.554,0
2.556,0
2.558,0
2.56,0
2.562,0
2.564,0
2.566,0
2.568,0
2.57,0
2.572,0
2.574,0
2.576,0
2.578,0
2.58,0
2.582,0
2.584,0
2.586,0
2.588,0
2.59,0
2.592,0
2.594,-0.00341122183690235
2.596,-0.00262558322466033
2.598,-0.00195416071886167
2.6,-0.00133094603989153
2.602,-0.000689930908135128
2.604,3.4892956022381e-05
2.606,0.00090953383219583
2.608,0.002
2.61,0.00337229973904968
2.612,0.00509244132895975
2.614,0.00722643304934489
2.616,0.00984028317982005
2.618,0.013
2.62,0.0167025652305922
2.622,0.0206688543566754
2.624,0.0245507163044208
2.626,0.028
2.628,0.0307674817593395
2.63,0.0329996474573879
2.632,0.0349419103588489
2.634,0.0368396837284266
2.636,0.0389383808308247
2.638,0.0414834149307472
2.64,0.0447037730113203
2.642,0.0484506375793874
2.644,0.0521973866655089
2.646,0.0554009720186675
2.648,0.0575183453878461
2.65,0.0580289781310401
2.652,0.0569302926135359
2.654,0.0547376622079105
2.656,0.0519889798957538
2.658,0.0492221386586554
2.66,0.0469605967091873
2.662,0.045395812572507
2.664,0.0443872450863583
2.666,0.0437799183194667
2.668,0.043418856340558
2.67,0.0431490832183577
2.672,0.0428122513891604
2.674,0.0421724657433454
2.676,0.0409162836253769
2.678,0.0387268907472877
2.68,0.0352874728211109
2.682,0.0303049529630062
2.684,0.0240322145840481
2.686,0.0172681013902257
2.688,0.0108351944916548
2.69,0.00553494138601612
2.692,0.00168271648497476
2.694,-0.000892178885819161
2.696,-0.00238157701315089
2.698,-0.00297731018380587
2.7,-0.00287102844511333
2.702,-0.00225019033691159
2.704,-0.00129806289154827
2.706,-0.000197730901914883
2.708,0.000867720839097141
2.71,0.00171520753859633
2.712,0.00216901322331536
2.714,0.0022229047713434
2.716,0.00204013191212593
2.718,0.00179131319473264
2.72,0.00164706716823321
2.722,0.00177801238169734
2.724,0.00233986891277149
2.726,0.00314569199636844
2.728,0.00366587202466734
2.73,0.00335590091842403
2.732,0.00167127059839439
2.734,-0.00193252701466562
2.736,-0.00800000000000012
2.738,-0.0166100813235882
2.74,-0.0259794034983483
2.742,-0.0338590239239344
2.744,-0.038
2.746,-0.0379125877881391
2.748,-0.0401438379977072
2.75,-0.053
2.752,-0.078662121296825
2.754,-0.0948104419120364
2.756,-0.073
2.758,0.00267953893637424
2.76,0.098
2.762,0.178117881186059
2.764,0.255866881452979
2.766,0.356000000000002
2.768,0.491529085386149
2.77,0.628501383609573
2.772,0.721222990028212
2.774,0.724
2.776,0.614895432378527
2.778,0.467
2.78,0.356763489984521
2.782,0.279044292605157
2.784,0.208302948923214
2.786,0.119
2.788,-0.00209794443755174
2.79,-0.119
2.792,-0.193585615626068
2.794,-0.22843984822964
2.796,-0.236324156718392
2.798,-0.23
2.8,-0.219658787808854
2.802,-0.2052117331862
2.804,-0.184
2.806,-0.155658857942114
2.808,-0.129
2.81,-0.112300491341789
2.812,-0.102522462562715
2.814,-0.093799310614784
2.816,-0.0804779678558527
2.818,-0.0618166809782733
2.82,-0.0419850110088955
2.822,-0.0252532012974333
2.824,-0.013295874284988
2.826,-0.00519203150404735
2.828,9.21785958835075e-05
2.83,0.00357365292416462
2.832,0.00587933164404619
2.834,0.00724619817266858
2.836,0.00789428128603703
2.838,0.00804360976015678
2.84,0.00791331043088433
2.842,0.0077017655106561
2.844,0.00758661258848853
2.846,0.00774458731324928
2.848,0.00835242533380609
2.85,0.00958686229902661
2.852,0.0116246338577786
2.854,0.0146303858013305
2.856,0.0184906971961728
2.858,0.0228140803840169
2.86,0.0271969578489757
2.862,0.0312357520751616
2.864,0.0345394846130014
2.866,0.0370069555381451
2.868,0.0388267434514659
2.87,0.0402000260201512
2.872,0.041327980911388
2.874,0.0424117857923639
2.876,0.0436443578015284
2.878,0.0450286219163644
2.88,0.046377510953388
2.882,0.0474956972003777
2.884,0.048187852945112
2.886,0.0482586504753694
2.888,0.0475269495272602
2.89,0.0461379211485282
2.892,0.0445630476985509
2.894,0.0432879989850372
2.896,0.0427984448156964
2.898,0.0435622299291824
2.9,0.0456372224758744
2.902,0.0486713140178778
2.904,0.0522945710482423
2.906,0.0561370600600177
2.908,0.0598288475462536
2.91,0.063
2.912,0.0653997954020015
2.914,0.0672543576837827
2.916,0.0689090222645631
2.918,0.0707091245635624
2.92,0.073
2.922,0.0760418438450347
2.924,0.0797542907775822
2.926,0.0839718353284976
2.928,0.0885289720286356
2.93,0.0932601954088514
2.932,0.0979999999999999
2.934,0.102606599935339
2.936,0.107033087757736
2.938,0.111256275612465
2.94,0.115252975644796
2.942,0.119
2.944,0.122598729830303
2.946,0.126648822315743
2.948,0.131874503643311
2.95,0.139
2.952,0.148378513827812
2.954,0.158879152588792
2.956,0.169
2.958,0.177866375656063
2.96,0.1871125426619
2.962,0.199
2.964,0.214572148952484
2.966,0.23
2.968,0.241349543940772
2.97,0.249139083644794
2.972,0.255
2.974,0.2603014074929
2.976,0.265363355004288
2.978,0.270243625013532
2.98,0.275
2.982,0.279628770959352
2.984,0.283880262952417
2.986,0.287443309556317
2.988,0.290006744348176
2.99,0.291259400905114
2.992,0.290890112804254
2.994,0.288611752104749
2.996,0.284690075952464
2.998,0.279943726579978
3,0.275215384701899
3.002,0.271347731032835
3.004,0.269130328555373
3.006,0.268131032415564
3.008,0.266695989922925
3.01,0.26311823065495
3.012,0.255690784189132
3.014,0.242861714585212
3.016,0.226644878994557
3.018,0.212397475996484
3.02,0.20051535038791
3.022,0.186501506428853
3.024,0.170778094453804
3.026,0.158718877570788
3.028,0.151551512429321
3.03,0.146134001492668
3.032,0.139134362259474
3.034,0.127379247889102
3.036,0.111343931737456
3.038,0.0950438725833724
3.04,0.0801591650733843
3.042,0.0659452617774088
3.044,0.0531444079690067
3.046,0.0440177629600561
3.048,0.0391406346833044
3.05,0.0373331219759657
3.052,0.037339010236318
3.054,0.0379020848626392
3.056,0.0377993096416226
3.058,0.0365707512935147
3.06,0.0345195794721149
3.062,0.0319821422196385
3.064,0.0292947875783001
3.066,0.0267849984734534
3.068,0.0245763601426369
3.07,0.0225885601355744
3.072,0.0207324208851281
3.074,0.0189187648241601
3.076,0.0170620913149532
3.078,0.0151614690964613
3.08,0.0133005362843088
3.082,0.0115666079235413
3.084,0.0100469990592038
3.086,0.00882902473634162
3.088,0.00800000000000001
3.09,0.00760981658308801
3.092,0.00755867296996993
3.094,0
3.096,0
3.098,0
3.1,0
3.102,0
3.104,0
3.106,0
3.108,0
3.11,0
3.112,0
3.114,0
3.116,0
3.118,0
3.12,0
3.122,0
3.124,0
3.126,0
3.128,0
3.13,0
3.132,0
3.134,0
3.136,0
3.138,0
3.14,0
3.142,0
3.144,0
3.146,0
3.148,0
3.15,0
3.152,0
3.154,0
3.156,0
3.158,0
3.16,0
3.162,0
3.164,0
3.166,0
3.168,0
3.17,0
3.172,0
3.174,0
3.176,0
3.178,0
3.18,0
3.182,0
3.184,0
3.186,0
3.188,0
3.19,0
3.192,0
3.194,0
3.196,0
3.198,0
3.2,0
3.202,0
3.204,0
3.206,0
3.208,0
3.21,0
3.212,0
3.214,0
3.216,0
3.218,0
3.22,0
3.222,0
3.224,0
3.226,0
3.228,0
3.23,0
3.232,0
3.234,0
3.236,0
3.238,0
3.24,0
3.242,0
3.244,0
3.246,0
3.248,0
3.25,0
3.252,0
3.254,0
3.256,0
3.258,0
3.26,0
3.262,0
3.264,0
3.266,0
3.268,0
3.27,0
3.272,0
3.274,0
3.276,0
3.278,0
3.28,0
3.282,0
3.284,0
3.286,0
3.288,0
3.29,0
3.292,0
3.294,0
3.296,0
3.298,0
3.3,0
3.302,0
3.304,0
3.306,0
3.308,0
3.31,0
3.312,0
3.314,0
3.316,0
3.318,0
3.32,0
3.322,0
3.324,0
3.326,0
3.328,0
3.33,0
3.332,0
3.334,0
3.336,0
3.338,0
3.34,0
3.342,0
3.344,0
3.346,0
3.348,0
3.35,0
3.352,0
3.354,0
3.356,0
3.358,0
3.36,0
3.362,0
3.364,0
3.366,0
3.368,0
3.37,0
3.372,0
3.374,0
3.376,0
3.378,0
3.38,0
3.382,0
3.384,0
3.386,0
3.388,0
3.39,0
3.392,0
3.394,0
3.396,0
3.398,0
3.4,0
3.402,0
3.404,0
3.406,0
3.408,0
3.41,0
3.412,0
3.414,0
3.416,0
3.418,0
3.42,0
3.422,0
3.424,0
3.426,0
3.428,0
3.43,0
3.432,0
3.434,0
3.436,0
3.438,0
3.44,0
3.442,0
3.444,0
3.446,0
3.448,0
3.45,0
3.452,0
3.454,0
3.456,-0.00341122183690235
3.458,-0.00262558322466033
3.46,-0.00195416071886167
3.462,-0.00133094603989153
3.464,-0.000689930908135128
3.466,3.4892956022381e-05
3.468,0.00090953383219583
3.47,0.002
3.472,0.00337229973904968
3.474,0.00509244132895975
3.476,0.00722643304934489
3.478,0.00984028317982005
3.48,0.013
3.482,0.0167025652305922
3.484,0.0206688543566754
3.486,0.0245507163044208
3.488,0.028
3.49,0.0307674817593395
3.492,0.0329996474573879
3.494,0.0349419103588489
3.496,0.0368396837284266
3.498,0.0389383808308247
3.5,0.0414834149307472
3.502,0.0447037730113203
3.504,0.0484506375793874
3.506,0.0521973866655089
3.508,0.0554009720186675
3.51,0.0575183453878461
3.512,0.0580289781310401
3.514,0.0569302926135359
3.516,0.0547376622079105
3.518,0.0519889798957538
3.52,0.0492221386586554
3.522,0.0469605967091873
3.524,0.045395812572507
3.526,0.0443872450863583
3.528,0.0437799183194667
3.53,0.043418856340558
3.532,0.0431490832183577
3.534,0.0428122513891604
3.536,0.0421724657433454
3.538,0.0409162836253769
3.54,0.0387268907472877
3.542,0.0352874728211109
3.544,0.0303049529630062
3.546,0.0240322145840481
3.548,0.0172681013902257
3.55,0.0108351944916548
3.552,0.00553494138601612
3.554,0.00168271648497476
3.556,-0.000892178885819161
3.558,-0.00238157701315089
3.56,-0.00297731018380587
3.562,-0.00287102844511333
3.564,-0.00225019033691159
3.566,-0.00129806289154827
3.568,-0.000197730901914883
3.57,0.000867720839097141
3.572,0.00171520753859633
3.574,0.00216901322331536
3.576,0.0022229047713434
3.578,0.00204013191212593
3.58,0.00179131319473264
3.582,0.00164706716823321
3.584,0.00177801238169734
3.586,0.00233986891277149
3.588,0.00314569199636844
3.59,0.00366587202466734
3.592,0.00335590091842403
3.594,0.00167127059839439
3.596,-0.00193252701466562
3.598,-0.00800000000000012
3.6,-0.0166100813235882
3.602,-0.0259794034983483
3.604,-0.0338590239239344
3.606,-0.038
3.608,-0.0379125877881391
3.61,-0.0401438379977072
3.612,-0.053
3.614,-0.078662121296825
3.616,-0.0948104419120364
3.618,-0.073
3.62,0.00267953893637424
3.622,0.098
3.624,0.178117881186059
3.626,0.255866881452979
3.628,0.356000000000002
3.63,0.491529085386149
3.632,0.628501383609573
3.634,0.721222990028212
3.636,0.724
3.638,0.614895432378527
3.64,0.467
3.642,0.356763489984521
3.644,0.279044292605157
3.646,0.208302948923214
3.648,0.119
3.65,-0.00209794443755174
3.652,-0.119
3.654,-0.193585615626068
3.656,-0.22843984822964
3.658,-0.236324156718392
3.66,-0.23
3.662,-0.219658787808854
3.664,-0.2052117331862
3.666,-0.184
3.668,-0.155658857942114
3.67,-0.129
3.672,-0.112300491341789
3.674,-0.102522462562715
3.676,-0.093799310614784
3.678,-0.0804779678558527
3.68,-0.0618166809782733
3.682,-0.0419850110088955
3.684,-0.0252532012974333
3.686,-0.013295874284988
3.688,-0.00519203150404735
3.69,9.21785958835075e-05
3.692,0.00357365292416462
3.694,0.00587933164404619
3.696,0.00724619817266858
3.698,0.00789428128603703
3.7,0.00804360976015678
3.702,0.00791331043088433
3.704,0.0077017655106561
3.706,0.00758661258848853
3.708,0.00774458731324928
3.71,0.00835242533380609
3.712,0.00958686229902661
3.714,0.0116246338577786
3.716,0.0146303858013305
3.718,0.0184906971961728
3.72,0.0228140803840169
3.722,0.0271969578489757
3.724,0.0312357520751616
3.726,0.0345394846130014
3.728,0.0370069555381451
3.73,0.0388267434514659
3.732,0.0402000260201512
3.734,0.041327980911388
3.736,0.0424117857923639
3.738,0.0436443578015284
3.74,0.0450286219163644
3.742,0.046377510953388
3.744,0.0474956972003777
3.746,0.048187852945112
3.748,0.0482586504753694
3.75,0.0475269495272602
3.752,0.0461379211485282
3.754,0.0445630476985509
3.756,0.0432879989850372
3.758,0.0427984448156964
3.76,0.0435622299291824
3.762,0.0456372224758744
3.764,0.0486713140178778
3.766,0.0522945710482423
3.768,0.0561370600600177
3.77,0.0598288475462536
3.772,0.063
3.774,0.0653997954020015
3.776,0.0672543576837827
3.778,0.0689090222645631
3.78,0.0707091245635624
3.782,0.073
3.784,0.0760418438450347
3.786,0.0797542907775822
3.788,0.0839718353284976
3.79,0.0885289720286356
3.792,0.0932601954088514
3.794,0.0979999999999999
3.796,0.102606599935339
3.798,0.107033087757736
3.8,0.111256275612465
3.802,0.115252975644796
3.804,0.119
3.806,0.122598729830303
3.808,0.126648822315743
3.81,0.131874503643311
3.812,0.139
3.814,0.148378513827812
3.816,0.158879152588792
3.818,0.169
3.82,0.177866375656063
3.822,0.1871125426619
3.824,0.199
3.826,0.214572148952484
3.828,0.23
3.83,0.241349543940772
3.832,0.249139083644794
3.834,0.255
3.836,0.2603014074929
3.838,0.265363355004288
3.84,0.270243625013532
3.842,0.275
3.844,0.279628770959352
3.846,0.283880262952417
3.848,0.287443309556317
3.85,0.290006744348176
3.852,0.291259400905114
3.854,0.290890112804254
3.856,0.288611752104749
3.858,0.284690075952464
3.86,0.279943726579978
3.862,0.275215384701899
3.864,0.271347731032835
3.866,0.269130328555373
3.868,0.268131032415564
3.87,0.266695989922925
3.872,0.26311823065495
3.874,0.255690784189132
3.876,0.242861714585212
3.878,0.226644878994557
3.88,0.212397475996484
3.882,0.20051535038791
3.884,0.186501506428853
3.886,0.170778094453804
3.888,0.158718877570788
3.89,0.151551512429321
3.892,0.146134001492668
3.894,0.139134362259474
3.896,0.127379247889102
3.898,0.111343931737456
3.9,0.0950438725833724
3.902,0.0801591650733843
3.904,0.0659452617774088
3.906,0.0531444079690067
3.908,0.0440177629600561
3.91,0.0391406346833044
3.912,0.0373331219759657
3.914,0.037339010236318
3.916,0.0379020848626392
3.918,0.0377993096416226
3.92,0.0365707512935147
3.922,0.0345195794721149
3.924,0.0319821422196385
3.926,0.0292947875783001
3.928,0.0267849984734534
3.93,0.0245763601426369
3.932,0.0225885601355744
3.934,0.0207324208851281
3.936,0.0189187648241601
3.938,0.0170620913149532
3.94,0.0151614690964613
3.942,0.0133005362843088
3.944,0.0115666079235413
3.946,0.0100469990592038
3.948,0.00882902473634162
3.95,0.00800000000000001
3.952,0.00760981658308801
3.954,0.00755867296996993
3.956,0
3.958,0
3.96,0
3.962,0
3.964,0
3.966,0
3.968,0
3.97,0
3.972,0
3.974,0
3.976,0
3.978,0
3.98,0
3.982,0
3.984,0
3.986,0
3.988,0
3.99,0
3.992,0
3.994,0
3.996,0
3.998,0
4,0
4.002,0
4.004,0
4.006,0
4.008,0
4.01,0
4.012,0
4.014,0
4.016,0
4.018,0
4.02,0
4.022,0
4.024,0
4.026,0
4.028,0
4.03,0
4.032,0
4.034,0
4.036,0
4.038,0
4.04,0
4.042,0
4.044,0
4.046,0
4.048,0
4.05,0
4.052,0
4.054,0
4.056,0
4.058,0
4.06,0
4.062,0
4.064,0
4.066,0
4.068,0
4.07,0
4.072,0
4.074,0
4.076,0
4.078,0
4.08,0
4.082,0
4.084,0
4.086,0
4.088,0
4.09,0
4.092,0
4.094,0
4.096,0
4.098,0
4.1,0
4.102,0
4.104,0
4.106,0
4.108,0
4.11,0
4.112,0
4.114,0
4.116,0
4.118,0
4.12,0
4.122,0
4.124,0
4.126,0
4.128,0
4.13,0
4.132,0
4.134,0
4.136,0
4.138,0
4.14,0
4.142,0
4.144,0
4.146,0
4.148,0
4.15,0
4.152,0
4.154,0
4.156,0
4.158,0
4.16,0
4.162,0
4.164,0
4.166,0
4.168,0
4.17,0
4.172,0
4.174,0
4.176,0
4.178,0
4.18,0
4.182,0
4.184,0
4.186,0
4.188,0
4.19,0
4.192,0
4.194,0
4.196,0
4.198,0
4.2,0
4.202,0
4.204,0
4.206,0
4.208,0
4.21,0
4.212,0
4.214,0
4.216,0
4.218,0
4.22,0
4.222,0
4.224,0
4.226,0
4.228,0
4.23,0
4.232,0
4.234,0
4.236,0
4.238,0
4.24,0
4.242,0
4.244,0
4.246,0
4.248,0
4.25,0
4.252,0
4.254,0
4.256,0
4.258,0
4.26,0
4.262,0
4.264,0
4.266,0
4.268,0
4.27,0
4.272,0
4.274,0
4.276,0
4.278,0
4.28,0
4.282,0
4.284,0
4.286,0
4.288,-0.00341122183690235
4.29,-0.00262558322466033
4.292,-0.00195416071886167
4.294,-0.00133094603989153
4.296,-0.000689930908135128
4.298,3.4892956022381e-05
4.3,0.00090953383219583
4.302,0.002
4.304,0.00337229973904968
4.306,0.00509244132895975
4.308,0.00722643304934489
4.31,0.00984028317982005
4.312,0.013
4.314,0.0167025652305922
4.316,0.0206688543566754
4.318,0.0245507163044208
4.32,0.028
4.322,0.0307674817593395
4.324,0.0329996474573879
4.326,0.0349419103588489
4.328,0.0368396837284266
4.33,0.0389383808308247
4.332,0.0414834149307472
4.334,0.0447037730113203
4.336,0.0484506375793874
4.338,0.0521973866655089
4.34,0.0554009720186675
4.342,0.0575183453878461
4.344,0.0580289781310401
4.346,0.0569302926135359
4.348,0.0547376622079105
4.35,0.0519889798957538
4.352,0.0492221386586554
4.354,0.0469605967091873
4.356,0.045395812572507
4.358,0.0443872450863583
4.36,0.0437799183194667
4.362,0.043418856340558
4.364,0.0431490832183577
4.366,0.0428122513891604
4.368,0.0421724657433454
4.37,0.0409162836253769
4.372,0.0387268907472877
4.374,0.0352874728211109
4.376,0.0303049529630062
4.378,0.0240322145840481
4.38,0.0172681013902257
4.382,0.0108351944916548
4.384,0.00553494138601612
4.386,0.00168271648497476
4.388,-0.000892178885819161
4.39,-0.00238157701315089
4.392,-0.00297731018380587
4.394,-0.00287102844511333
4.396,-0.00225019033691159
4.398,-0.00129806289154827
4.4,-0.000197730901914883
4.402,0.000867720839097141
4.404,0.00171520753859633
4.406,0.00216901322331536
4.408,0.0022229047713434
4.41,0.00204013191212593
4.412,0.00179131319473264
4.414,0.00164706716823321
4.416,0.00177801238169734
4.418,0.00233986891277149
4.42,0.00314569199636844
4.422,0.00366587202466734
4.424,0.00335590091842403
4.426,0.00167127059839439
4.428,-0.00193252701466562
4.43,-0.00800000000000012
4.432,-0.0166100813235882
4.434,-0.0259794034983483
4.436,-0.0338590239239344
4.438,-0.038
4.44,-0.0379125877881391
4.442,-0.0401438379977072
4.444,-0.053
4.446,-0.078662121296825
4.448,-0.0948104419120364
4.45,-0.073
4.452,0.00267953893637424
4.454,0.098
4.456,0.178117881186059
4.458,0.255866881452979
4.46,0.356000000000002
4.462,0.491529085386149
4.464,0.628501383609573
4.466,0.721222990028212
4.468,0.724
4.47,0.614895432378527
4.472,0.467
4.474,0.356763489984521
4.476,0.279044292605157
4.478,0.208302948923214
4.48,0.119
4.482,-0.00209794443755174
4.484,-0.119
4.486,-0.193585615626068
4.488,-0.22843984822964
4.49,-0.236324156718392
4.492,-0.23
4.494,-0.219658787808854
4.496,-0.2052117331862
4.498,-0.184
4.5,-0.155658857942114
4.502,-0.129
4.504,-0.112300491341789
4.506,-0.102522462562715
4.508,-0.093799310614784
4.51,-0.0804779678558527
4.512,-0.0618166809782733
4.514,-0.0419850110088955
4.516,-0.0252532012974333
4.518,-0.013295874284988
4.52,-0.00519203150404735
4.522,9.21785958835075e-05
4.524,0.00357365292416462
4.526,0.00587933164404619
4.528,0.00724619817266858
4.53,0.00789428128603703
4.532,0.00804360976015678
4.534,0.00791331043088433
4.536,0.0077017655106561
4.538,0.00758661258848853
4.54,0.00774458731324928
4.542,0.00835242533380609
4.544,0.00958686229902661
4.546,0.0116246338577786
4.548,0.0146303858013305
4.55,0.0184906971961728
4.552,0.0228140803840169
4.554,0.0271969578489757
4.556,0.0312357520751616
4.558,0.0345394846130014
4.56,0.0370069555381451
4.562,0.0388267434514659
4.564,0.0402000260201512
4.566,0.041327980911388
4.568,0.0424117857923639
4.57,0.0436443578015284
4.572,0.0450286219163644
4.574,0.046377510953388
4.576,0.0474956972003777
4.578,0.048187852945112
4.58,0.0482586504753694
4.582,0.0475269495272602
4.584,0.0461379211485282
4.586,0.0445630476985509
4.588,0.0432879989850372
4.59,0.0427984448156964
4.592,0.0435622299291824
4.594,0.0456372224758744
4.596,0.0486713140178778
4.598,0.0522945710482423
4.6,0.0561370600600177
4.602,0.0598288475462536
4.604,0.063
4.606,0.0653997954020015
4.608,0.0672543576837827
4.61,0.0689090222645631
4.612,0.0707091245635624
4.614,0.073
4.616,0.0760418438450347
4.618,0.0797542907775822
4.62,0.0839718353284976
4.622,0.0885289720286356
4.624,0.0932601954088514
4.626,0.0979999999999999
4.628,0.102606599935339
4.63,0.107033087757736
4.632,0.111256275612465
4.634,0.115252975644796
4.636,0.119
4.638,0.122598729830303
4.64,0.126648822315743
4.642,0.131874503643311
4.644,0.139
4.646,0.148378513827812
4.648,0.158879152588792
4.65,0.169
4.652,0.177866375656063
4.654,0.1871125426619
4.656,0.199
4.658,0.214572148952484
4.66,0.23
4.662,0.241349543940772
4.664,0.249139083644794
4.666,0.255
4.668,0.2603014074929
4.67,0.265363355004288
4.672,0.270243625013532
4.674,0.275
4.676,0.279628770959352
4.678,0.283880262952417
4.68,0.287443309556317
4.682,0.290006744348176
4.684,0.291259400905114
4.686,0.290890112804254
4.688,0.288611752104749
4.69,0.284690075952464
4.692,0.279943726579978
4.694,0.275215384701899
4.696,0.271347731032835
4.698,0.269130328555373
4.7,0.268131032415564
4.702,0.266695989922925
4.704,0.26311823065495
4.706,0.255690784189132
4.708,0.242861714585212
4.71,0.226644878994557
4.712,0.212397475996484
4.714,0.20051535038791
4.716,0.186501506428853
4.718,0.170778094453804
4.72,0.158718877570788
4.722,0.151551512429321
4.724,0.146134001492668
4.726,0.139134362259474
4.728,0.127379247889102
4.73,0.111343931737456
4.732,0.0950438725833724
4.734,0.0801591650733843
4.736,0.0659452617774088
4.738,0.0531444079690067
4.74,0.0440177629600561
4.742,0.0391406346833044
4.744,0.0373331219759657
4.746,0.037339010236318
4.748,0.0379020848626392
4.75,0.0377993096416226
4.752,0.0365707512935147
4.754,0.0345195794721149
4.756,0.0319821422196385
4.758,0.0292947875783001
4.76,0.0267849984734534
4.762,0.0245763601426369
4.764,0.0225885601355744
4.766,0.0207324208851281
4.768,0.0189187648241601
4.77,0.0170620913149532
4.772,0.0151614690964613
4.774,0.0133005362843088
4.776,0.0115666079235413
4.778,0.0100469990592038
4.78,0.00882902473634162
4.782,0.00800000000000001
4.784,0.00760981658308801
4.786,0.00755867296996993
4.788,0
4.79,0
4.792,0
4.794,0
4.796,0
4.798,0
4.8,0
4.802,0
4.804,0
4.806,0
4.808,0
4.81,0
4.812,0
4.814,0
4.816,0
4.818,0
4.82,0
4.822,0
4.824,0
4.826,0
4.828,0
4.83,0
4.832,0
4.834,0
4.836,0
4.838,0
4.84,0
4.842,0
4.844,0
4.846,0
4.848,0
4.85,0
4.852,0
4.854,0
4.856,0
4.858,0
4.86,0
4.862,0
4.864,0
4.866,0
4.868,0
4.87,0
4.872,0
4.874,0
4.876,0
4.878,0
4.88,0
4.882,0
4.884,0
4.886,0
4.888,0
4.89,0
4.892,0
4.894,0
4.896,0
4.898,0
4.9,0
4.902,0
4.904,0
4.906,0
4.908,0
4.91,0
4.912,0
4.914,0
4.916,0
4.918,0
4.92,0
4.922,0
4.924,0
4.926,0
4.928,0
4.93,0
4.932,0
4.934,0
4.936,0
4.938,0
4.94,0
4.942,0
4.944,0
4.946,0
4.948,0
4.95,0
4.952,0
4.954,0
4.956,0
4.958,0
4.96,0
4.962,0
4.964,0
4.966,0
4.968,0
4.97,0
4.972,0
4.974,0
4.976,0
4.978,0
4.98,0
4.982,0
4.984,0
4.986,0
4.988,0
4.99,0
4.992,0
4.994,0
4.996,0
4.998,0
5,0
5.002,0
5.004,0
5.006,0
5.008,0
5.01,0
5.012,0
5.014,0
5.016,0
5.018,0
5.02,0
5.022,0
5.024,0
5.026,0
5.028,0
5.03,0
5.032,0
5.034,0
5.036,0
5.038,0
5.04,0
5.042,0
5.044,0
5.046,0
5.048,0
5.05,0
5.052,0
5.054,0
5.056,0
5.058,0
5.06,0
5.062,0
5.064,0
5.066,0
5.068,0
5.07,0
5.072,0
5.074,0
5.076,0
5.078,0
5.08,0
5.082,0
5.084,0
5.086,0
5.088,0
5.09,0
5.092,0
5.094,-0.00341122183690235
5.096,-0.00262558322466033
5.098,-0.00195416071886167
5.1,-0.00133094603989153
5.102,-0.000689930908135128
5.104,3.4892956022381e-05
5.106,0.00090953383219583
5.108,0.002
5.11,0.00337229973904968
5.112,0.00509244132895975
5.114,0.00722643304934489
5.116,0.00984028317982005
5.118,0.013
5.12,0.0167025652305922
5.122,0.0206688543566754
5.124,0.0245507163044208
5.126,0.028
5.128,0.0307674817593395
5.13,0.0329996474573879
5.132,0.0349419103588489
5.134,0.0368396837284266
5.136,0.0389383808308247
5.138,0.0414834149307472
5.14,0.0447037730113203
5.142,0.0484506375793874
5.144,0.0521973866655089
5.146,0.0554009720186675
5.148,0.0575183453878461
5.15,0.0580289781310401
5.152,0.0569302926135359
5.154,0.0547376622079105
5.156,0.0519889798957538
5.158,0.0492221386586554
5.16,0.0469605967091873
5.162,0.045395812572507
5.164,0.0443872450863583
5.166,0.0437799183194667
5.168,0.043418856340558
5.17,0.0431490832183577
5.172,0.0428122513891604
5.174,0.0421724657433454
5.176,0.0409162836253769
5.178,0.0387268907472877
5.18,0.0352874728211109
5.182,0.0303049529630062
5.184,0.0240322145840481
5.186,0.0172681013902257
5.188,0.0108351944916548
5.19,0.00553494138601612
5.192,0.00168271648497476
5.194,-0.000892178885819161
5.196,-0.00238157701315089
5.198,-0.00297731018380587
5.2,-0.00287102844511333
5.202,-0.00225019033691159
5.204,-0.00129806289154827
5.206,-0.000197730901914883
5.208,0.000867720839097141
5.21,0.00171520753859633
5.212,0.00216901322331536
5.214,0.0022229047713434
5.216,0.00204013191212593
5.218,0.00179131319473264
5.22,0.00164706716823321
5.222,0.00177801238169734
5.224,0.00233986891277149
5.226,0.00314569199636844
5.228,0.00366587202466734
5.23,0.00335590091842403
5.232,0.00167127059839439
5.234,-0.00193252701466562
5.236,-0.00800000000000012
5.238,-0.0166100813235882
5.24,-0.0259794034983483
5.242,-0.0338590239239344
5.244,-0.038
5.246,-0.0379125877881391
5.248,-0.0401438379977072
5.25,-0.053
5.252,-0.078662121296825
5.254,-0.0948104419120364
5.256,-0.073
5.258,0.00267953893637424
5.26,0.098
5.262,0.178117881186059
5.264,0.255866881452979
5.266,0.356000000000002
5.268,0.491529085386149
5.27,0.628501383609573
5.272,0.721222990028212
5.274,0.724
5.276,0.614895432378527
5.278,0.467
5.28,0.356763489984521
5.282,0.279044292605157
5.284,0.208302948923214
5.286,0.119
5.288,-0.00209794443755174
5.29,-0.119
5.292,-0.193585615626068
5.294,-0.22843984822964
5.296,-0.236324156718392
5.298,-0.23
5.3,-0.219658787808854
5.302,-0.2052117331862
5.304,-0.184
5.306,-0.155658857942114
5.308,-0.129
5.31,-0.112300491341789
5.312,-0.102522462562715
5.314,-0.093799310614784
5.316,-0.0804779678558527
5.318,-0.0618166809782733
5.32,-0.0419850110088955
5.322,-0.0252532012974333
5.324,-0.013295874284988
5.326,-0.00519203150404735
5.328,9.21785958835075e-05
5.33,0.00357365292416462
5.332,0.00587933164404619
5.334,0.00724619817266858
5.336,0.00789428128603703
5.338,0.00804360976015678
5.34,0.00791331043088433
5.342,0.0077017655106561
5.344,0.00758661258848853
5.346,0.00774458731324928
5.348,0.00835242533380609
5.35,0.00958686229902661
5.352,0.0116246338577786
5.354,0.0146303858013305
5.356,0.0184906971961728
5.358,0.0228140803840169
5.36,0.0271969578489757
5.362,0.0312357520751616
5.364,0.0345394846130014
5.366,0.0370069555381451
5.368,0.0388267434514659
5.37,0.0402000260201512
5.372,0.041327980911388
5.374,0.0424117857923639
5.376,0.0436443578015284
5.378,0.0450286219163644
5.38,0.046377510953388
5.382,0.0474956972003777
5.384,0.048187852945112
5.386,0.0482586504753694
5.388,0.0475269495272602
5.39,0.0461379211485282
5.392,0.0445630476985509
5.394,0.0432879989850372
5.396,0.0427984448156964
5.398,0.0435622299291824
5.4,0.0456372224758744
5.402,0.0486713140178778
5.404,0.0522945710482423
5.406,0.0561370600600177
5.408,0.0598288475462536
5.41,0.063
5.412,0.0653997954020015
5.414,0.0672543576837827
5.416,0.0689090222645631
5.418,0.0707091245635624
5.42,0.073
5.422,0.0760418438450347
5.424,0.0797542907775822
5.426,0.0839718353284976
5.428,0.0885289720286356
5.43,0.0932601954088514
5.432,0.0979999999999999
5.434,0.102606599935339
5.436,0.107033087757736
5.438,0.111256275612465
5.44,0.115252975644796
5.442,0.119
5.444,0.122598729830303
5.446,0.126648822315743
5.448,0.131874503643311
5.45,0.139
5.452,0.148378513827812
5.454,0.158879152588792
5.456,0.169
5.458,0.177866375656063
5.46,0.1871125426619
5.462,0.199
5.464,0.214572148952484
5.466,0.23
5.468,0.241349543940772
5.47,0.249139083644794
5.472,0.255
5.474,0.2603014074929
5.476,0.265363355004288
5.478,0.270243625013532
5.48,0.275
5.482,0.279628770959352
5.484,0.283880262952417
5.486,0.287443309556317
5.488,0.290006744348176
5.49,0.291259400905114
5.492,0.290890112804254
5.494,0.288611752104749
5.496,0.284690075952464
5.498,0.279943726579978
5.5,0.275215384701899
5.502,0.271347731032835
5.504,0.269130328555373
5.506,0.268131032415564
5.508,0.266695989922925
5.51,0.26311823065495
5.512,0.255690784189132
5.514,0.242861714585212
5.516,0.226644878994557
5.518,0.212397475996484
5.52,0.20051535038791
5.522,0.186501506428853
5.524,0.170778094453804
5.526,0.158718877570788
5.528,0.151551512429321
5.53,0.146134001492668
5.532,0.139134362259474
5.534,0.127379247889102
5.536,0.111343931737456
5.538,0.0950438725833724
5.54,0.0801591650733843
5.542,0.0659452617774088
5.544,0.0531444079690067
5.546,0.0440177629600561
5.548,0.0391406346833044
5.55,0.0373331219759657
5.552,0.037339010236318
5.554,0.0379020848626392
5.556,0.0377993096416226
5.558,0.0365707512935147
5.56,0.0345195794721149
5.562,0.0319821422196385
5.564,0.0292947875783001
5.566,0.0267849984734534
5.568,0.0245763601426369
5.57,0.0225885601355744
5.572,0.0207324208851281
5.574,0.0189187648241601
5.576,0.0170620913149532
5.578,0.0151614690964613
5.58,0.0133005362843088
5.582,0.0115666079235413
5.584,0.0100469990592038
5.586,0.00882902473634162
5.588,0.00800000000000001
5.59,0.00760981658308801
5.592,0.00755867296996993
5.594,0
5.596,0
5.598,0
5.6,0
5.602,0
5.604,0
5.606,0
5.608,0
5.61,0
5.612,0
5.614,0
5.616,0
5.618,0
5.62,0
5.622,0
5.624,0
5.626,0
5.628,0
5.63,0
5.632,0
5.634,0
5.636,0
5.638,0
5.64,0
5.642,0
5.644,0
5.646,0
5.648,0
5.65,0
5.652,0
5.654,0
5.656,0
5.658,0
5.66,0
5.662,0
5.664,0
5.666,0
5.668,0
5.67,0
5.672,0
5.674,0
5.676,0
5.678,0
5.68,0
5.682,0
5.684,0
5.686,0
5.688,0
5.69,0
5.692,0
5.694,0
5.696,0
5.698,0
5.7,0
5.702,0
5.704,0
5.706,0
5.708,0
5.71,0
5.712,0
5.714,0
5.716,0
5.718,0
5.72,0
5.722,0
5.724,0
5.726,0
5.728,0
5.73,0
5.732,0
5.734,0
5.736,0
5.738,0
5.74,0
5.742,0
5.744,0
5.746,0
5.748,0
5.75,0
5.752,0
5.754,0
5.756,0
5.758,0
5.76,0
5.762,0
5.764,0
5.766,0
5.768,0
5.77,0
5.772,0
5.774,0
5.776,0
5.778,0
5.78,0
5.782,0
5.784,0
5.786,0
5.788,0
5.79,0
5.792,0
5.794,0
5.796,0
5.798,0
5.8,0
5.802,0
5.804,0
5.806,0
5.808,0
5.81,0
5.812,0
5.814,0
5.816,0
5.818,0
5.82,0
5.822,0
5.824,0
5.826,0
5.828,0
5.83,0
5.832,0
5.834,0
5.836,0
5.838,0
5.84,0
5.842,0
5.844,0
5.846,0
5.848,0
5.85,0
5.852,0
5.854,0
5.856,0
5.858,0
5.86,0
5.862,0
5.864,0
5.866,0
5.868,0
5.87,0
5.872,0
5.874,0
5.876,0
5.878,0
5.88,-0.00341122183690235
5.882,-0.00262558322466033
5.884,-0.00195416071886167
5.886,-0.00133094603989153
5.888,-0.000689930908135128
5.89,3.4892956022381e-05
5.892,0.00090953383219583
5.894,0.002
5.896,0.00337229973904968
5.898,0.00509244132895975
5.9,0.00722643304934489
5.902,0.00984028317982005
5.904,0.013
5.906,0.0167025652305922
5.908,0.0206688543566754
5.91,0.0245507163044208
5.912,0.028
5.914,0.0307674817593395
5.916,0.0329996474573879
5.918,0.0349419103588489
5.92,0.0368396837284266
5.922,0.0389383808308247
5.924,0.0414834149307472
5.926,0.0447037730113203
5.928,0.0484506375793874
5.93,0.0521973866655089
5.932,0.0554009720186675
5.934,0.0575183453878461
5.936,0.0580289781310401
5.938,0.0569302926135359
5.94,0.0547376622079105
5.942,0.0519889798957538
5.944,0.0492221386586554
5.946,0.0469605967091873
5.948,0.045395812572507
5.95,0.0443872450863583
5.952,0.0437799183194667
5.954,0.043418856340558
5.956,0.0431490832183577
5.958,0.0428122513891604
5.96,0.0421724657433454
5.962,0.0409162836253769
5.964,0.0387268907472877
5.966,0.0352874728211109
5.968,0.0303049529630062
5.97,0.0240322145840481
5.972,0.0172681013902257
5.974,0.0108351944916548
5.976,0.00553494138601612
5.978,0.00168271648497476
5.98,-0.000892178885819161
5.982,-0.00238157701315089
5.984,-0.00297731018380587
5.986,-0.00287102844511333
5.988,-0.00225019033691159
5.99,-0.00129806289154827
5.992,-0.000197730901914883
5.994,0.000867720839097141
5.996,0.00171520753859633
5.998,0.00216901322331536
6,0.0022229047713434
6.002,0.00204013191212593
6.004,0.00179131319473264
6.006,0.00164706716823321
6.008,0.00177801238169734
6.01,0.00233986891277149
6.012,0.00314569199636844
6.014,0.00366587202466734
6.016,0.00335590091842403
6.018,0.00167127059839439
6.02,-0.00193252701466562
6.022,-0.00800000000000012
6.024,-0.0166100813235882
6.026,-0.0259794034983483
6.028,-0.0338590239239344
6.03,-0.038
6.032,-0.0379125877881391
6.034,-0.0401438379977072
6.036,-0.053
6.038,-0.078662121296825
6.04,-0.0948104419120364
6.042,-0.073
6.044,0.00267953893637424
6.046,0.098
6.048,0.178117881186059
6.05,0.255866881452979
6.052,0.356000000000002
6.054,0.491529085386149
6.056,0.628501383609573
6.058,0.721222990028212
6.06,0.724
6.062,0.614895432378527
6.064,0.467
6.066,0.356763489984521
6.068,0.279044292605157
6.07,0.208302948923214
6.072,0.119
6.074,-0.00209794443755174
6.076,-0.119
6.078,-0.193585615626068
6.08,-0.22843984822964
6.082,-0.236324156718392
6.084,-0.23
6.086,-0.219658787808854
6.088,-0.2052117331862
6.09,-0.184
6.092,-0.155658857942114
6.094,-0.129
6.096,-0.112300491341789
6.098,-0.102522462562715
6.1,-0.093799310614784
6.102,-0.0804779678558527
6.104,-0.0618166809782733
6.106,-0.0419850110088955
6.108,-0.0252532012974333
6.11,-0.013295874284988
6.112,-0.00519203150404735
6.114,9.21785958835075e-05
6.116,0.00357365292416462
6.118,0.00587933164404619
6.12,0.00724619817266858
6.122,0.00789428128603703
6.124,0.00804360976015678
6.126,0.00791331043088433
6.128,0.0077017655106561
6.13,0.00758661258848853
6.132,0.00774458731324928
6.134,0.00835242533380609
6.136,0.00958686229902661
6.138,0.0116246338577786
6.14,0.0146303858013305
6.142,0.0184906971961728
6.144,0.0228140803840169
6.146,0.0271969578489757
6.148,0.0312357520751616
6.15,0.0345394846130014
6.152,0.0370069555381451
6.154,0.0388267434514659
6.156,0.0402000260201512
6.158,0.041327980911388
6.16,0.0424117857923639
6.162,0.0436443578015284
6.164,0.0450286219163644
6.166,0.046377510953388
6.168,0.0474956972003777
6.17,0.048187852945112
6.172,0.0482586504753694
6.174,0.0475269495272602
6.176,0.0461379211485282
6.178,0.0445630476985509
6.18,0.0432879989850372
6.182,0.0427984448156964
6.184,0.0435622299291824
6.186,0.0456372224758744
6.188,0.0486713140178778
6.19,0.0522945710482423
6.192,0.0561370600600177
6.194,0.0598288475462536
6.196,0.063
6.198,0.0653997954020015
6.2,0.0672543576837827
6.202,0.0689090222645631
6.204,0.0707091245635624
6.206,0.073
6.208,0.0760418438450347
6.21,0.0797542907775822
6.212,0.0839718353284976
6.214,0.0885289720286356
6.216,0.0932601954088514
6.218,0.0979999999999999
6.22,0.102606599935339
6.222,0.107033087757736
6.224,0.111256275612465
6.226,0.115252975644796
6.228,0.119
6.23,0.122598729830303
6.232,0.126648822315743
6.234,0.131874503643311
6.236,0.139
6.238,0.148378513827812
6.24,0.158879152588792
6.242,0.169
6.244,0.177866375656063
6.246,0.1871125426619
6.248,0.199
6.25,0.214572148952484
6.252,0.23
6.254,0.241349543940772
6.256,0.249139083644794
6.258,0.255
6.26,0.2603014074929
6.262,0.265363355004288
6.264,0.270243625013532
6.266,0.275
6.268,0.279628770959352
6.27,0.283880262952417
6.272,0.287443309556317
6.274,0.290006744348176
6.276,0.291259400905114
6.278,0.290890112804254
6.28,0.288611752104749
6.282,0.284690075952464
6.284,0.279943726579978
6.286,0.275215384701899
6.288,0.271347731032835
6.29,0.269130328555373
6.292,0.268131032415564
6.294,0.266695989922925
6.296,0.26311823065495
6.298,0.255690784189132
6.3,0.242861714585212
6.302,0.226644878994557
6.304,0.212397475996484
6.306,0.20051535038791
6.308,0.186501506428853
6.31,0.170778094453804
6.312,0.158718877570788
6.314,0.151551512429321
6.316,0.146134001492668
6.318,0.139134362259474
6.32,0.127379247889102
6.322,0.111343931737456
6.324,0.0950438725833724
6.326,0.0801591650733843
6.328,0.0659452617774088
6.33,0.0531444079690067
6.332,0.0440177629600561
6.334,0.0391406346833044
6.336,0.0373331219759657
6.338,0.037339010236318
6.34,0.0379020848626392
6.342,0.0377993096416226
6.344,0.0365707512935147
6.346,0.0345195794721149
6.348,0.0319821422196385
6.35,0.0292947875783001
6.352,0.0267849984734534
6.354,0.0245763601426369
6.356,0.0225885601355744
6.358,0.0207324208851281
6.36,0.0189187648241601
6.362,0.0170620913149532
6.364,0.0151614690964613
6.366,0.0133005362843088
6.368,0.0115666079235413
6.37,0.0100469990592038
6.372,0.00882902473634162
6.374,0.00800000000000001
6.376,0.00760981658308801
6.378,0.00755867296996993
6.38,0
6.382,0
6.384,0
6.386,0
6.388,0
6.39,0
6.392,0
6.394,0
6.396,0
6.398,0
6.4,0
6.402,0
6.404,0
6.406,0
6.408,0
6.41,0
6.412,0
6.414,0
6.416,0
6.418,0
6.42,0
6.422,0
6.424,0
6.426,0
6.428,0
6.43,0
6.432,0
6.434,0
6.436,0
6.438,0
6.44,0
6.442,0
6.444,0
6.446,0
6.448,0
6.45,0
6.452,0
6.454,0
6.456,0
6.458,0
6.46,0
6.462,0
6.464,0
6.466,0
6.468,0
6.47,0
6.472,0
6.474,0
6.476,0
6.478,0
6.48,0
6.482,0
6.484,0
6.486,0
6.488,0
6.49,0
6.492,0
6.494,0
6.496,0
6.498,0
6.5,0
6.502,0
6.504,0
6.506,0
6.508,0
6.51,0
6.512,0
6.514,0
6.516,0
6.518,0
6.52,0
6.522,0
6.524,0
6.526,0
6.528,0
6.53,0
6.532,0
6.534,0
6.536,0
6.538,0
6.54,0
6.542,0
6.544,0
6.546,0
6.548,0
6.55,0
6.552,0
6.554,0
6.556,0
6.558,0
6.56,0
6.562,0
6.564,0
6.566,0
6.568,0
6.57,0
6.572,0
6.574,0
6.576,0
6.578,0
6.58,0
6.582,0
6.584,0
6.586,0
6.588,0
6.59,0
6.592,0
6.594,0
6.596,0
6.598,0
6.6,0
6.602,0
6.604,0
6.606,0
6.608,0
6.61,0
6.612,0
6.614,0
6.616,0
6.618,0
6.62,0
6.622,0
6.624,0
6.626,0
6.628,0
6.63,0
6.632,0
6.634,0
6.636,0
6.638,0
6.64,0
6.642,0
6.644,0
6.646,0
6.648,0
6.65,-0.00341122183690235
6.652,-0.00262558322466033
6.654,-0.00195416071886167
6.656,-0.00133094603989153
6.658,-0.000689930908135128
6.66,3.4892956022381e-05
6.662,0.00090953383219583
6.664,0.002
6.666,0.00337229973904968
6.668,0.00509244132895975
6.67,0.00722643304934489
6.672,0.00984028317982005
6.674,0.013
6.676,0.0167025652305922
6.678,0.0206688543566754
6.68,0.0245507163044208
6.682,0.028
6.684,0.0307674817593395
6.686,0.0329996474573879
6.688,0.0349419103588489
6.69,0.0368396837284266
6.692,0.0389383808308247
6.694,0.0414834149307472
6.696,0.0447037730113203
6.698,0.0484506375793874
6.7,0.0521973866655089
6.702,0.0554009720186675
6.704,0.0575183453878461
6.706,0.0580289781310401
6.708,0.0569302926135359
6.71,0.0547376622079105
6.712,0.0519889798957538
6.714,0.0492221386586554
6.716,0.0469605967091873
6.718,0.045395812572507
6.72,0.0443872450863583
6.722,0.0437799183194667
6.724,0.043418856340558
6.726,0.0431490832183577
6.728,0.0428122513891604
6.73,0.0421724657433454
6.732,0.0409162836253769
6.734,0.0387268907472877
6.736,0.0352874728211109
6.738,0.0303049529630062
6.74,0.0240322145840481
6.742,0.0172681013902257
6.744,0.0108351944916548
6.746,0.00553494138601612
6.748,0.00168271648497476
6.75,-0.000892178885819161
6.752,-0.00238157701315089
6.754,-0.00297731018380587
6.756,-0.00287102844511333
6.758,-0.00225019033691159
6.76,-0.00129806289154827
6.762,-0.000197730901914883
6.764,0.000867720839097141
6.766,0.00171520753859633
6.768,0.00216901322331536
6.77,0.0022229047713434
6.772,0.00204013191212593
6.774,0.00179131319473264
6.776,0.00164706716823321
6.778,0.00177801238169734
6.78,0.00233986891277149
6.782,0.00314569199636844
6.784,0.00366587202466734
6.786,0.00335590091842403
6.788,0.00167127059839439
6.79,-0.00193252701466562
6.792,-0.00800000000000012
6.794,-0.0166100813235882
6.796,-0.0259794034983483
6.798,-0.0338590239239344
6.8,-0.038
6.802,-0.0379125877881391
6.804,-0.0401438379977072
6.806,-0.053
6.808,-0.078662121296825
6.81,-0.0948104419120364
6.812,-0.073
6.814,0.00267953893637424
6.816,0.098
6.818,0.178117881186059
6.82,0.255866881452979
6.822,0.356000000000002
6.824,0.491529085386149
6.826,0.628501383609573
6.828,0.721222990028212
6.83,0.724
6.832,0.614895432378527
6.834,0.467
6.836,0.356763489984521
6.838,0.279044292605157
6.84,0.208302948923214
6.842,0.119
6.844,-0.00209794443755174
6.846,-0.119
6.848,-0.193585615626068
6.85,-0.22843984822964
6.852,-0.236324156718392
6.854,-0.23
6.856,-0.219658787808854
6.858,-0.2052117331862
6.86,-0.184
6.862,-0.155658857942114
6.864,-0.129
6.866,-0.112300491341789
6.868,-0.102522462562715
6.87,-0.093799310614784
6.872,-0.0804779678558527
6.874,-0.0618166809782733
6.876,-0.0419850110088955
6.878,-0.0252532012974333
6.88,-0.013295874284988
6.882,-0.00519203150404735
6.884,9.21785958835075e-05
6.886,0.00357365292416462
6.888,0.00587933164404619
6.89,0.00724619817266858
6.892,0.00789428128603703
6.894,0.00804360976015678
6.896,0.00791331043088433
6.898,0.0077017655106561
6.9,0.00758661258848853
6.902,0.00774458731324928
6.904,0.00835242533380609
6.906,0.00958686229902661
6.908,0.0116246338577786
6.91,0.0146303858013305
6.912,0.0184906971961728
6.914,0.0228140803840169
6.916,0.0271969578489757
6.918,0.0312357520751616
6.92,0.0345394846130014
6.922,0.0370069555381451
6.924,0.0388267434514659
6.926,0.0402000260201512
6.928,0.041327980911388
6.93,0.0424117857923639
6.932,0.0436443578015284
6.934,0.0450286219163644
6.936,0.046377510953388
6.938,0.0474956972003777
6.94,0.048187852945112
6.942,0.0482586504753694
6.944,0.0475269495272602
6.946,0.0461379211485282
6.948,0.0445630476985509
6.95,0.0432879989850372
6.952,0.0427984448156964
6.954,0.0435622299291824
6.956,0.0456372224758744
6.958,0.0486713140178778
6.96,0.0522945710482423
6.962,0.0561370600600177
6.964,0.0598288475462536
6.966,0.063
6.968,0.0653997954020015
6.97,0.0672543576837827
6.972,0.0689090222645631
6.974,0.0707091245635624
6.976,0.073
6.978,0.0760418438450347
6.98,0.0797542907775822
6.982,0.0839718353284976
6.984,0.0885289720286356
6.986,0.0932601954088514
6.988,0.0979999999999999
6.99,0.102606599935339
6.992,0.107033087757736
6.994,0.111256275612465
6.996,0.115252975644796
6.998,0.119
7,0.122598729830303
7.002,0.126648822315743
7.004,0.131874503643311
7.006,0.139
7.008,0.148378513827812
7.01,0.158879152588792
7.012,0.169
7.014,0.177866375656063
7.016,0.1871125426619
7.018,0.199
7.02,0.214572148952484
7.022,0.23
7.024,0.241349543940772
7.026,0.249139083644794
7.028,0.255
7.03,0.2603014074929
7.032,0.265363355004288
7.034,0.270243625013532
7.036,0.275
7.038,0.279628770959352
7.04,0.283880262952417
7.042,0.287443309556317
7.044,0.290006744348176
7.046,0.291259400905114
7.048,0.290890112804254
7.05,0.288611752104749
7.052,0.284690075952464
7.054,0.279943726579978
7.056,0.275215384701899
7.058,0.271347731032835
7.06,0.269130328555373
7.062,0.268131032415564
7.064,0.266695989922925
7.066,0.26311823065495
7.068,0.255690784189132
7.07,0.242861714585212
7.072,0.226644878994557
7.074,0.212397475996484
7.076,0.20051535038791
7.078,0.186501506428853
7.08,0.170778094453804
7.082,0.158718877570788
7.084,0.151551512429321
7.086,0.146134001492668
7.088,0.139134362259474
7.09,0.127379247889102
7.092,0.111343931737456
7.094,0.0950438725833724
7.096,0.0801591650733843
7.098,0.0659452617774088
7.1,0.0531444079690067
7.102,0.0440177629600561
7.104,0.0391406346833044
7.106,0.0373331219759657
7.108,0.037339010236318
7.11,0.0379020848626392
7.112,0.0377993096416226
7.114,0.0365707512935147
7.116,0.0345195794721149
7.118,0.0319821422196385
7.12,0.0292947875783001
7.122,0.0267849984734534
7.124,0.0245763601426369
7.126,0.0225885601355744
7.128,0.0207324208851281
7.13,0.0189187648241601
7.132,0.0170620913149532
7.134,0.0151614690964613
7.136,0.0133005362843088
7.138,0.0115666079235413
7.14,0.0100469990592038
7.142,0.00882902473634162
7.144,0.00800000000000001
7.146,0.00760981658308801
7.148,0.00755867296996993
7.15,0
7.152,0
7.154,0
7.156,0
7.158,0
7.16,0
7.162,0
7.164,0
7.166,0
7.168,0
7.17,0
7.172,0
7.174,0
7.176,0
7.178,0
7.18,0
7.182,0
7.184,0
7.186,0
7.188,0
7.19,0
7.192,0
7.194,0
7.196,0
7.198,0
7.2,0
7.202,0
7.204,0
7.206,0
7.208,0
7.21,0
7.212,0
7.214,0
7.216,0
7.218,0
7.22,0
7.222,0
7.224,0
7.226,0
7.228,0
7.23,0
7.232,0
7.234,0
7.236,0
7.238,0
7.24,0
7.242,0
7.244,0
7.246,0
7.248,0
7.25,0
7.252,0
7.254,0
7.256,0
7.258,0
7.26,0
7.262,0
7.264,0
7.266,0
7.268,0
7.27,0
7.272,0
7.274,0
7.276,0
7.278,0
7.28,0
7.282,0
7.284,0
7.286,0
7.288,0
7.29,0
7.292,0
7.294,0
7.296,0
7.298,0
7.3,0
7.302,0
7.304,0
7.306,0
7.308,0
7.31,0
7.312,0
7.314,0
7.316,0
7.318,0
7.32,0
7.322,0
7.324,0
7.326,0
7.328,0
7.33,0
7.332,0
7.334,0
7.336,0
7.338,0
7.34,0
7.342,0
7.344,0
7.346,0
7.348,0
7.35,0
7.352,0
7.354,0
7.356,0
7.358,0
7.36,0
7.362,0
7.364,0
7.366,0
7.368,0
7.37,0
7.372,0
7.374,0
7.376,0
7.378,0
7.38,0
7.382,0
7.384,0
7.386,0
7.388,0
7.39,0
7.392,0
7.394,0
7.396,0
7.398,0
7.4,0
7.402,0
7.404,0
7.406,0
7.408,-0.00341122183690235
7.41,-0.00262558322466033
7.412,-0.00195416071886167
7.414,-0.00133094603989153
7.416,-0.000689930908135128
7.418,3.4892956022381e-05
7.42,0.00090953383219583
7.422,0.002
7.424,0.00337229973904968
7.426,0.00509244132895975
7.428,0.00722643304934489
7.43,0.00984028317982005
7.432,0.013
7.434,0.0167025652305922
7.436,0.0206688543566754
7.438,0.0245507163044208
7.44,0.028
7.442,0.0307674817593395
7.444,0.0329996474573879
7.446,0.0349419103588489
7.448,0.0368396837284266
7.45,0.0389383808308247
7.452,0.0414834149307472
7.454,0.0447037730113203
7.456,0.0484506375793874
7.458,0.0521973866655089
7.46,0.0554009720186675
7.462,0.0575183453878461
7.464,0.0580289781310401
7.466,0.0569302926135359
7.468,0.0547376622079105
7.47,0.0519889798957538
7.472,0.0492221386586554
7.474,0.0469605967091873
7.476,0.045395812572507
7.478,0.0443872450863583
7.48,0.0437799183194667
7.482,0.043418856340558
7.484,0.0431490832183577
7.486,0.0428122513891604
7.488,0.0421724657433454
7.49,0.0409162836253769
7.492,0.0387268907472877
7.494,0.0352874728211109
7.496,0.0303049529630062
7.498,0.0240322145840481
7.5,0.0172681013902257
7.502,0.0108351944916548
7.504,0.00553494138601612
7.506,0.00168271648497476
7.508,-0.000892178885819161
7.51,-0.00238157701315089
7.512,-0.00297731018380587
7.514,-0.00287102844511333
7.516,-0.00225019033691159
7.518,-0.00129806289154827
7.52,-0.000197730901914883
7.522,0.000867720839097141
7.524,0.00171520753859633
7.526,0.00216901322331536
7.528,0.0022229047713434
7.53,0.00204013191212593
7.532,0.00179131319473264
7.534,0.00164706716823321
7.536,0.00177801238169734
7.538,0.00233986891277149
7.54,0.00314569199636844
7.542,0.00366587202466734
7.544,0.00335590091842403
7.546,0.00167127059839439
7.548,-0.00193252701466562
7.55,-0.00800000000000012
7.552,-0.0166100813235882
7.554,-0.0259794034983483
7.556,-0.0338590239239344
7.558,-0.038
7.56,-0.0379125877881391
7.562,-0.0401438379977072
7.564,-0.053
7.566,-0.078662121296825
7.568,-0.0948104419120364
7.57,-0.073
7.572,0.00267953893637424
7.574,0.098
7.576,0.178117881186059
7.578,0.255866881452979
7.58,0.356000000000002
7.582,0.491529085386149
7.584,0.628501383609573
7.586,0.721222990028212
7.588,0.724
7.59,0.614895432378527
7.592,0.467
7.594,0.356763489984521
7.596,0.279044292605157
7.598,0.208302948923214
7.6,0.119
7.602,-0.00209794443755174
7.604,-0.119
7.606,-0.193585615626068
7.608,-0.22843984822964
7.61,-0.236324156718392
7.612,-0.23
7.614,-0.219658787808854
7.616,-0.2052117331862
7.618,-0.184
7.62,-0.155658857942114
7.622,-0.129
7.624,-0.112300491341789
7.626,-0.102522462562715
7.628,-0.093799310614784
7.63,-0.0804779678558527
7.632,-0.0618166809782733
7.634,-0.0419850110088955
7.636,-0.0252532012974333
7.638,-0.013295874284988
7.64,-0.00519203150404735
7.642,9.21785958835075e-05
7.644,0.00357365292416462
7.646,0.00587933164404619
7.648,0.00724619817266858
7.65,0.00789428128603703
7.652,0.00804360976015678
7.654,0.00791331043088433
7.656,0.0077017655106561
7.658,0.00758661258848853
7.66,0.00774458731324928
7.662,0.00835242533380609
7.664,0.00958686229902661
7.666,0.0116246338577786
7.668,0.0146303858013305
7.67,0.0184906971961728
7.672,0.0228140803840169
7.674,0.0271969578489757
7.676,0.0312357520751616
7.678,0.0345394846130014
7.68,0.0370069555381451
7.682,0.0388267434514659
7.684,0.0402000260201512
7.686,0.041327980911388
7.688,0.0424117857923639
7.69,0.0436443578015284
7.692,0.0450286219163644
7.694,0.046377510953388
7.696,0.0474956972003777
7.698,0.048187852945112
7.7,0.0482586504753694
7.702,0.0475269495272602
7.704,0.0461379211485282
7.706,0.0445630476985509
7.708,0.0432879989850372
7.71,0.0427984448156964
7.712,0.0435622299291824
7.714,0.0456372224758744
7.716,0.0486713140178778
7.718,0.0522945710482423
7.72,0.0561370600600177
7.722,0.0598288475462536
7.724,0.063
7.726,0.0653997954020015
7.728,0.0672543576837827
7.73,0.0689090222645631
7.732,0.0707091245635624
7.734,0.073
7.736,0.0760418438450347
7.738,0.0797542907775822
7.74,0.0839718353284976
7.742,0.0885289720286356
7.744,0.0932601954088514
7.746,0.0979999999999999
7.748,0.102606599935339
7.75,0.107033087757736
7.752,0.111256275612465
7.754,0.115252975644796
7.756,0.119
7.758,0.122598729830303
7.76,0.126648822315743
7.762,0.131874503643311
7.764,0.139
7.766,0.148378513827812
7.768,0.158879152588792
7.77,0.169
7.772,0.177866375656063
7.774,0.1871125426619
7.776,0.199
7.778,0.214572148952484
7.78,0.23
7.782,0.241349543940772
7.784,0.249139083644794
7.786,0.255
7.788,0.2603014074929
7.79,0.265363355004288
7.792,0.270243625013532
7.794,0.275
7.796,0.279628770959352
7.798,0.283880262952417
7.8,0.287443309556317
7.802,0.290006744348176
7.804,0.291259400905114
7.806,0.290890112804254
7.808,0.288611752104749
7.81,0.284690075952464
7.812,0.279943726579978
7.814,0.275215384701899
7.816,0.271347731032835
7.818,0.269130328555373
7.82,0.268131032415564
7.822,0.266695989922925
7.824,0.26311823065495
7.826,0.255690784189132
7.828,0.242861714585212
7.83,0.226644878994557
7.832,0.212397475996484
7.834,0.20051535038791
7.836,0.186501506428853
7.838,0.170778094453804
7.84,0.158718877570788
7.842,0.151551512429321
7.844,0.146134001492668
7.846,0.139134362259474
7.848,0.127379247889102
7.85,0.111343931737456
7.852,0.0950438725833724
7.854,0.0801591650733843
7.856,0.0659452617774088
7.858,0.0531444079690067
7.86,0.0440177629600561
7.862,0.0391406346833044
7.864,0.0373331219759657
7.866,0.037339010236318
7.868,0.0379020848626392
7.87,0.0377993096416226
7.872,0.0365707512935147
7.874,0.0345195794721149
7.876,0.0319821422196385
7.878,0.0292947875783001
7.88,0.0267849984734534
7.882,0.0245763601426369
7.884,0.0225885601355744
7.886,0.0207324208851281
7.888,0.0189187648241601
7.89,0.0170620913149532
7.892,0.0151614690964613
7.894,0.0133005362843088
7.896,0.0115666079235413
7.898,0.0100469990592038
7.9,0.00882902473634162
7.902,0.00800000000000001
7.904,0.00760981658308801
7.906,0.00755867296996993
7.908,0
7.91,0
7.912,0
7.914,0
7.916,0
7.918,0
7.92,0
7.922,0
7.924,0
7.926,0
7.928,0
7.93,0
7.932,0
7.934,0
7.936,0
7.938,0
7.94,0
7.942,0
7.944,0
7.946,0
7.948,0
7.95,0
7.952,0
7.954,0
7.956,0
7.958,0
7.96,0
7.962,0
7.964,0
7.966,0
7.968,0
7.97,0
7.972,0
7.974,0
7.976,0
7.978,0
7.98,0
7.982,0
7.984,0
7.986,0
7.988,0
7.99,0
7.992,0
7.994,0
7.996,0
7.998,0
8,0
8.002,0
8.004,0
8.006,0
8.008,0
8.01,0
8.012,0
8.014,0
8.016,0
8.018,0
8.02,0
8.022,0
8.024,0
8.026,0
8.028,0
8.03,0
8.032,0
8.034,0
8.036,0
8.038,0
8.04,0
8.042,0
8.044,0
8.046,0
8.048,0
8.05,0
8.052,0
8.054,0
8.056,0
8.058,0
8.06,0
8.062,0
8.064,0
8.066,0
8.068,0
8.07,0
8.072,0
8.074,0
8.076,0
8.078,0
8.08,0
8.082,0
8.084,0
8.086,0
8.088,0
8.09,0
8.092,0
8.094,0
8.096,0
8.098,0
8.1,0
8.102,0
8.104,0
8.106,0
8.108,0
8.11,0
8.112,0
8.114,0
8.116,0
8.118,0
8.12,0
8.122,0
8.124,0
8.126,0
8.128,0
8.13,0
8.132,0
8.134,0
8.136,0
8.138,0
8.14,0
8.142,0
8.144,0
8.146,0
8.148,0
8.15,0
8.152,0
8.154,0
8.156,-0.00341122183690235
8.158,-0.00262558322466033
8.16,-0.00195416071886167
8.162,-0.00133094603989153
8.164,-0.000689930908135128
8.166,3.4892956022381e-05
8.168,0.00090953383219583
8.17,0.002
8.172,0.00337229973904968
8.174,0.00509244132895975
8.176,0.00722643304934489
8.178,0.00984028317982005
8.18,0.013
8.182,0.0167025652305922
8.184,0.0206688543566754
8.186,0.0245507163044208
8.188,0.028
8.19,0.0307674817593395
8.192,0.0329996474573879
8.194,0.0349419103588489
8.196,0.0368396837284266
8.198,0.0389383808308247
8.2,0.0414834149307472
8.202,0.0447037730113203
8.204,0.0484506375793874
8.206,0.0521973866655089
8.208,0.0554009720186675
8.21,0.0575183453878461
8.212,0.0580289781310401
8.214,0.0569302926135359
8.216,0.0547376622079105
8.218,0.0519889798957538
8.22,0.0492221386586554
8.222,0.0469605967091873
8.224,0.045395812572507
8.226,0.0443872450863583
8.228,0.0437799183194667
8.23,0.043418856340558
8.232,0.0431490832183577
8.234,0.0428122513891604
8.236,0.0421724657433454
8.238,0.0409162836253769
8.24,0.0387268907472877
8.242,0.0352874728211109
8.244,0.0303049529630062
8.246,0.0240322145840481
8.248,0.0172681013902257
8.25,0.0108351944916548
8.252,0.00553494138601612
8.254,0.00168271648497476
8.256,-0.000892178885819161
8.258,-0.00238157701315089
8.26,-0.00297731018380587
8.262,-0.00287102844511333
8.264,-0.00225019033691159
8.266,-0.00129806289154827
8.268,-0.000197730901914883
8.27,0.000867720839097141
8.272,0.00171520753859633
8.274,0.00216901322331536
8.276,0.0022229047713434
8.278,0.00204013191212593
8.28,0.00179131319473264
8.282,0.00164706716823321
8.284,0.00177801238169734
8.286,0.00233986891277149
8.288,0.00314569199636844
8.29,0.00366587202466734
8.292,0.00335590091842403
8.294,0.00167127059839439
8.296,-0.00193252701466562
8.298,-0.00800000000000012
8.3,-0.0166100813235882
8.302,-0.0259794034983483
8.304,-0.0338590239239344
8.306,-0.038
8.308,-0.0379125877881391
8.31,-0.0401438379977072
8.312,-0.053
8.314,-0.078662121296825
8.316,-0.0948104419120364
8.318,-0.073
8.32,0.00267953893637424
8.322,0.098
8.324,0.178117881186059
8.326,0.255866881452979
8.328,0.356000000000002
8.33,0.491529085386149
8.332,0.628501383609573
8.334,0.721222990028212
8.336,0.724
8.338,0.614895432378527
8.34,0.467
8.342,0.356763489984521
8.344,0.279044292605157
8.346,0.208302948923214
8.348,0.119
8.35,-0.00209794443755174
8.352,-0.119
8.354,-0.193585615626068
8.356,-0.22843984822964
8.358,-0.236324156718392
8.36,-0.23
8.362,-0.219658787808854
8.364,-0.2052117331862
8.366,-0.184
8.368,-0.155658857942114
8.37,-0.129
8.372,-0.112300491341789
8.374,-0.102522462562715
8.376,-0.093799310614784
8.378,-0.0804779678558527
8.38,-0.0618166809782733
8.382,-0.0419850110088955
8.384,-0.0252532012974333
8.386,-0.013295874284988
8.388,-0.00519203150404735
8.39,9.21785958835075e-05
8.392,0.00357365292416462
8.394,0.00587933164404619
8.396,0.00724619817266858
8.398,0.00789428128603703
8.4,0.00804360976015678
8.402,0.00791331043088433
8.404,0.0077017655106561
8.406,0.00758661258848853
8.408,0.00774458731324928
8.41,0.00835242533380609
8.412,0.00958686229902661
8.414,0.0116246338577786
8.416,0.0146303858013305
8.418,0.0184906971961728
8.42,0.0228140803840169
8.422,0.0271969578489757
8.424,0.0312357520751616
8.426,0.0345394846130014
8.428,0.0370069555381451
8.43,0.0388267434514659
8.432,0.0402000260201512
8.434,0.041327980911388
8.436,0.0424117857923639
8.438,0.0436443578015284
8.44,0.0450286219163644
8.442,0.046377510953388
8.444,0.0474956972003777
8.446,0.048187852945112
8.448,0.0482586504753694
8.45,0.0475269495272602
8.452,0.0461379211485282
8.454,0.0445630476985509
8.456,0.0432879989850372
8.458,0.0427984448156964
8.46,0.0435622299291824
8.462,0.0456372224758744
8.464,0.0486713140178778
8.466,0.0522945710482423
8.468,0.0561370600600177
8.47,0.0598288475462536
8.472,0.063
8.474,0.0653997954020015
8.476,0.0672543576837827
8.478,0.0689090222645631
8.48,0.0707091245635624
8.482,0.073
8.484,0.0760418438450347
8.486,0.0797542907775822
8.488,0.0839718353284976
8.49,0.0885289720286356
8.492,0.0932601954088514
8.494,0.0979999999999999
8.496,0.102606599935339
8.498,0.107033087757736
8.5,0.111256275612465
8.502,0.115252975644796
8.504,0.119
8.506,0.122598729830303
8.508,0.126648822315743
8.51,0.131874503643311
8.512,0.139
8.514,0.148378513827812
8.516,0.158879152588792
8.518,0.169
8.52,0.177866375656063
8.522,0.1871125426619
8.524,0.199
8.526,0.214572148952484
8.528,0.23
8.53,0.241349543940772
8.532,0.249139083644794
8.534,0.255
8.536,0.2603014074929
8.538,0.265363355004288
8.54,0.270243625013532
8.542,0.275
8.544,0.279628770959352
8.546,0.283880262952417
8.548,0.287443309556317
8.55,0.290006744348176
8.552,0.291259400905114
8.554,0.290890112804254
8.556,0.288611752104749
8.558,0.284690075952464
8.56,0.279943726579978
8.562,0.275215384701899
8.564,0.271347731032835
8.566,0.269130328555373
8.568,0.268131032415564
8.57,0.266695989922925
8.572,0.26311823065495
8.574,0.255690784189132
8.576,0.242861714585212
8.578,0.226644878994557
8.58,0.212397475996484
8.582,0.20051535038791
8.584,0.186501506428853
8.586,0.170778094453804
8.588,0.158718877570788
8.59,0.151551512429321
8.592,0.146134001492668
8.594,0.139134362259474
8.596,0.127379247889102
8.598,0.111343931737456
8.6,0.0950438725833724
8.602,0.0801591650733843
8.604,0.0659452617774088
8.606,0.0531444079690067
8.608,0.0440177629600561
8.61,0.0391406346833044
8.612,0.0373331219759657
8.614,0.037339010236318
8.616,0.0379020848626392
8.618,0.0377993096416226
8.62,0.0365707512935147
8.622,0.0345195794721149
8.624,0.0319821422196385
8.626,0.0292947875783001
8.628,0.0267849984734534
8.63,0.0245763601426369
8.632,0.0225885601355744
8.634,0.0207324208851281
8.636,0.0189187648241601
8.638,0.0170620913149532
8.64,0.0151614690964613
8.642,0.0133005362843088
8.644,0.0115666079235413
8.646,0.0100469990592038
8.648,0.00882902473634162
8.65,0.00800000000000001
8.652,0.00760981658308801
8.654,0.00755867296996993
8.656,0
8.658,0
8.66,0
8.662,0
8.664,0
8.666,0
8.668,0
8.67,0
8.672,0
8.674,0
8.676,0
8.678,0
8.68,0
8.682,0
8.684,0
8.686,0
8.688,0
8.69,0
8.692,0
8.694,0
8.696,0
8.698,0
8.7,0
8.702,0
8.704,0
8.706,0
8.708,0
8.71,0
8.712,0
8.714,0
8.716,0
8.718,0
8.72,0
8.722,0
8.724,0
8.726,0
8.728,0
8.73,0
8.732,0
8.734,0
8.736,0
8.738,0
8.74,0
8.742,0
8.744,0
8.746,0
8.748,0
8.75,0
8.752,0
8.754,0
8.756,0
8.758,0
8.76,0
8.762,0
8.764,0
8.766,0
8.768,0
8.77,0
8.772,0
8.774,0
8.776,0
8.778,0
8.78,0
8.782,0
8.784,0
8.786,0
8.788,0
8.79,0
8.792,0
8.794,0
8.796,0
8.798,0
8.8,0
8.802,0
8.804,0
8.806,0
8.808,0
8.81,0
8.812,0
8.814,0
8.816,0
8.818,0
8.82,0
8.822,0
8.824,0
8.826,0
8.828,0
8.83,0
8.832,0
8.834,0
8.836,0
8.838,0
8.84,0
8.842,0
8.844,0
8.846,0
8.848,0
8.85,0
8.852,0
8.854,0
8.856,0
8.858,0
8.86,0
8.862,0
8.864,0
8.866,0
8.868,0
8.87,0
8.872,0
8.874,0
8.876,0
8.878,0
8.88,0
8.882,0
8.884,0
8.886,0
8.888,0
8.89,0
8.892,0
8.894,0
8.896,-0.00341122183690235
8.898,-0.00262558322466033
8.9,-0.00195416071886167
8.902,-0.00133094603989153
8.904,-0.000689930908135128
8.906,3.4892956022381e-05
8.908,0.00090953383219583
8.91,0.002
8.912,0.00337229973904968
8.914,0.00509244132895975
8.916,0.00722643304934489
8.918,0.00984028317982005
8.92,0.013
8.922,0.0167025652305922
8.924,0.0206688543566754
8.926,0.0245507163044208
8.928,0.028
8.93,0.0307674817593395
8.932,0.0329996474573879
8.934,0.0349419103588489
8.936,0.0368396837284266
8.938,0.0389383808308247
8.94,0.0414834149307472
8.942,0.0447037730113203
8.944,0.0484506375793874
8.946,0.0521973866655089
8.948,0.0554009720186675
8.95,0.0575183453878461
8.952,0.0580289781310401
8.954,0.0569302926135359
8.956,0.0547376622079105
8.958,0.0519889798957538
8.96,0.0492221386586554
8.962,0.0469605967091873
8.964,0.045395812572507
8.966,0.0443872450863583
8.968,0.0437799183194667
8.97,0.043418856340558
8.972,0.0431490832183577
8.974,0.0428122513891604
8.976,0.0421724657433454
8.978,0.0409162836253769
8.98,0.0387268907472877
8.982,0.0352874728211109
8.984,0.0303049529630062
8.986,0.0240322145840481
8.988,0.0172681013902257
8.99,0.0108351944916548
8.992,0.00553494138601612
8.994,0.00168271648497476
8.996,-0.000892178885819161
8.998,-0.00238157701315089
9,-0.00297731018380587
9.002,-0.00287102844511333
9.004,-0.00225019033691159
9.006,-0.00129806289154827
9.008,-0.000197730901914883
9.01,0.000867720839097141
9.012,0.00171520753859633
9.014,0.00216901322331536
9.016,0.0022229047713434
9.018,0.00204013191212593
9.02,0.00179131319473264
9.022,0.00164706716823321
9.024,0.00177801238169734
9.026,0.00233986891277149
9.028,0.00314569199636844
9.03,0.00366587202466734
9.032,0.00335590091842403
9.034,0.00167127059839439
9.036,-0.00193252701466562
9.038,-0.00800000000000012
9.04,-0.0166100813235882
9.042,-0.0259794034983483
9.044,-0.0338590239239344
9.046,-0.038
9.048,-0.0379125877881391
9.05,-0.0401438379977072
9.052,-0.053
9.054,-0.078662121296825
9.056,-0.0948104419120364
9.058,-0.073
9.06,0.00267953893637424
9.062,0.098
9.064,0.178117881186059
9.066,0.255866881452979
9.068,0.356000000000002
9.07,0.491529085386149
9.072,0.628501383609573
9.074,0.721222990028212
9.076,0.724
9.078,0.614895432378527
9.08,0.467
9.082,0.356763489984521
9.084,0.279044292605157
9.086,0.208302948923214
9.088,0.119
9.09,-0.00209794443755174
9.092,-0.119
9.094,-0.193585615626068
9.096,-0.22843984822964
9.098,-0.236324156718392
9.1,-0.23
9.102,-0.219658787808854
9.104,-0.2052117331862
9.106,-0.184
9.108,-0.155658857942114
9.11,-0.129
9.112,-0.112300491341789
9.114,-0.102522462562715
9.116,-0.093799310614784
9.118,-0.0804779678558527
9.12,-0.0618166809782733
9.122,-0.0419850110088955
9.124,-0.0252532012974333
9.126,-0.013295874284988
9.128,-0.00519203150404735
9.13,9.21785958835075e-05
9.132,0.00357365292416462
9.134,0.00587933164404619
9.136,0.00724619817266858
9.138,0.00789428128603703
9.14,0.00804360976015678
9.142,0.00791331043088433
9.144,0.0077017655106561
9.146,0.00758661258848853
9.148,0.00774458731324928
9.15,0.00835242533380609
9.152,0.00958686229902661
9.154,0.0116246338577786
9.156,0.0146303858013305
9.158,0.0184906971961728
9.16,0.0228140803840169
9.162,0.0271969578489757
9.164,0.0312357520751616
9.166,0.0345394846130014
9.168,0.0370069555381451
9.17,0.0388267434514659
9.172,0.0402000260201512
9.174,0.041327980911388
9.176,0.0424117857923639
9.178,0.0436443578015284
9.18,0.0450286219163644
9.182,0.046377510953388
9.184,0.0474956972003777
9.186,0.048187852945112
9.188,0.0482586504753694
9.19,0.0475269495272602
9.192,0.0461379211485282
9.194,0.0445630476985509
9.196,0.0432879989850372
9.198,0.0427984448156964
9.2,0.0435622299291824
9.202,0.0456372224758744
9.204,0.0486713140178778
9.206,0.0522945710482423
9.208,0.0561370600600177
9.21,0.0598288475462536
9.212,0.063
9.214,0.0653997954020015
9.216,0.0672543576837827
9.218,0.0689090222645631
9.22,0.0707091245635624
9.222,0.073
9.224,0.0760418438450347
9.226,0.0797542907775822
9.228,0.0839718353284976
9.23,0.0885289720286356
9.232,0.0932601954088514
9.234,0.0979999999999999
9.236,0.102606599935339
9.238,0.107033087757736
9.24,0.111256275612465
9.242,0.115252975644796
9.244,0.119
9.246,0.122598729830303
9.248,0.126648822315743
9.25,0.131874503643311
9.252,0.139
9.254,0.148378513827812
9.256,0.158879152588792
9.258,0.169
9.26,0.177866375656063
9.262,0.1871125426619
9.264,0.199
9.266,0.214572148952484
9.268,0.23
9.27,0.241349543940772
9.272,0.249139083644794
9.274,0.255
9.276,0.2603014074929
9.278,0.265363355004288
9.28,0.270243625013532
9.282,0.275
9.284,0.279628770959352
9.286,0.283880262952417
9.288,0.287443309556317
9.29,0.290006744348176
9.292,0.291259400905114
9.294,0.290890112804254
9.296,0.288611752104749
9.298,0.284690075952464
9.3,0.279943726579978
9.302,0.275215384701899
9.304,0.271347731032835
9.306,0.269130328555373
9.308,0.268131032415564
9.31,0.266695989922925
9.312,0.26311823065495
9.314,0.255690784189132
9.316,0.242861714585212
9.318,0.226644878994557
9.32,0.212397475996484
9.322,0.20051535038791
9.324,0.186501506428853
9.326,0.170778094453804
9.328,0.158718877570788
9.33,0.151551512429321
9.332,0.146134001492668
9.334,0.139134362259474
9.336,0.127379247889102
9.338,0.111343931737456
9.34,0.0950438725833724
9.342,0.0801591650733843
9.344,0.0659452617774088
9.346,0.0531444079690067
9.348,0.0440177629600561
9.35,0.0391406346833044
9.352,0.0373331219759657
9.354,0.037339010236318
9.356,0.0379020848626392
9.358,0.0377993096416226
9.36,0.0365707512935147
9.362,0.0345195794721149
9.364,0.0319821422196385
9.366,0.0292947875783001
9.368,0.0267849984734534
9.37,0.0245763601426369
9.372,0.0225885601355744
9.374,0.0207324208851281
9.376,0.0189187648241601
9.378,0.0170620913149532
9.38,0.0151614690964613
9.382,0.0133005362843088
9.384,0.0115666079235413
9.386,0.0100469990592038
9.388,0.00882902473634162
9.39,0.00800000000000001
9.392,0.00760981658308801
9.394,0.00755867296996993
9.396,0
9.398,0
9.4,0
9.402,0
9.404,0
9.406,0
9.408,0
9.41,0
9.412,0
9.414,0
9.416,0
9.418,0
9.42,0
9.422,0
9.424,0
9.426,0
9.428,0
9.43,0
9.432,0
9.434,0
9.436,0
9.438,0
9.44,0
9.442,0
9.444,0
9.446,0
9.448,0
9.45,0
9.452,0
9.454,0
9.456,0
9.458,0
9.46,0
9.462,0
9.464,0
9.466,0
9.468,0
9.47,0
9.472,0
9.474,0
9.476,0
9.478,0
9.48,0
9.482,0
9.484,0
9.486,0
9.488,0
9.49,0
9.492,0
9.494,0
9.496,0
9.498,0
9.5,0
9.502,0
9.504,0
9.506,0
9.508,0
9.51,0
9.512,0
9.514,0
9.516,0
9.518,0
9.52,0
9.522,0
9.524,0
9.526,0
9.528,0
9.53,0
9.532,0
9.534,0
9.536,0
9.538,0
9.54,0
9.542,0
9.544,0
9.546,0
9.548,0
9.55,0
9.552,0
9.554,0
9.556,0
9.558,0
9.56,0
9.562,0
9.564,0
9.566,0
9.568,0
9.57,0
9.572,0
9.574,0
9.576,0
9.578,0
9.58,0
9.582,0
9.584,0
9.586,0
9.588,0
9.59,0
9.592,0
9.594,0
9.596,0
9.598,0
9.6,0
9.602,0
9.604,0
9.606,0
9.608,0
9.61,0
9.612,0
9.614,0
9.616,0
9.618,0
9.62,0
9.622,0
9.624,0
9.626,0
9.628,0
9.63,0
9.632,-0.00341122183690235
9.634,-0.00262558322466033
9.636,-0.00195416071886167
9.638,-0.00133094603989153
9.64,-0.000689930908135128
9.642,3.4892956022381e-05
9.644,0.00090953383219583
9.646,0.002
9.648,0.00337229973904968
9.65,0.00509244132895975
9.652,0.00722643304934489
9.654,0.00984028317982005
9.656,0.013
9.658,0.0167025652305922
9.66,0.0206688543566754
9.662,0.0245507163044208
9.664,0.028
9.666,0.0307674817593395
9.668,0.0329996474573879
9.67,0.0349419103588489
9.672,0.0368396837284266
9.674,0.0389383808308247
9.676,0.0414834149307472
9.678,0.0447037730113203
9.68,0.0484506375793874
9.682,0.0521973866655089
9.684,0.0554009720186675
9.686,0.0575183453878461
9.688,0.0580289781310401
9.69,0.0569302926135359
9.692,0.0547376622079105
9.694,0.0519889798957538
9.696,0.0492221386586554
9.698,0.0469605967091873
9.7,0.045395812572507
9.702,0.0443872450863583
9.704,0.0437799183194667
9.706,0.043418856340558
9.708,0.0431490832183577
9.71,0.0428122513891604
9.712,0.0421724657433454
9.714,0.0409162836253769
9.716,0.0387268907472877
9.718,0.0352874728211109
9.72,0.0303049529630062
9.722,0.0240322145840481
9.724,0.0172681013902257
9.726,0.0108351944916548
9.728,0.00553494138601612
9.73,0.00168271648497476
9.732,-0.000892178885819161
9.734,-0.00238157701315089
9.736,-0.00297731018380587
9.738,-0.00287102844511333
9.74,-0.00225019033691159
9.742,-0.00129806289154827
9.744,-0.000197730901914883
9.746,0.000867720839097141
9.748,0.00171520753859633
9.75,0.00216901322331536
9.752,0.0022229047713434
9.754,0.00204013191212593
9.756,0.00179131319473264
9.758,0.00164706716823321
9.76,0.00177801238169734
9.762,0.00233986891277149
9.764,0.00314569199636844
9.766,0.00366587202466734
9.768,0.00335590091842403
9.77,0.00167127059839439
9.772,-0.00193252701466562
9.774,-0.00800000000000012
9.776,-0.0166100813235882
9.778,-0.0259794034983483
9.78,-0.0338590239239344
9.782,-0.038
9.784,-0.0379125877881391
9.786,-0.0401438379977072
9.788,-0.053
9.79,-0.078662121296825
9.792,-0.0948104419120364
9.794,-0.073
9.796,0.00267953893637424
9.798,0.098
9.8,0.178117881186059
9.802,0.255866881452979
9.804,0.356000000000002
9.806,0.491529085386149
9.808,0.628501383609573
9.81,0.721222990028212
9.812,0.724
9.814,0.614895432378527
9.816,0.467
9.818,0.356763489984521
9.82,0.279044292605157
9.822,0.208302948923214
9.824,0.119
9.826,-0.00209794443755174
9.828,-0.119
9.83,-0.193585615626068
9.832,-0.22843984822964
9.834,-0.236324156718392
9.836,-0.23
9.838,-0.219658787808854
9.84,-0.2052117331862
9.842,-0.184
9.844,-0.155658857942114
9.846,-0.129
9.848,-0.112300491341789
9.85,-0.102522462562715
9.852,-0.093799310614784
9.854,-0.0804779678558527
9.856,-0.0618166809782733
9.858,-0.0419850110088955
9.86,-0.0252532012974333
9.862,-0.013295874284988
9.864,-0.00519203150404735
9.866,9.21785958835075e-05
9.868,0.00357365292416462
9.87,0.00587933164404619
9.872,0.00724619817266858
9.874,0.00789428128603703
9.876,0.00804360976015678
9.878,0.00791331043088433
9.88,0.0077017655106561
9.882,0.00758661258848853
9.884,0.00774458731324928
9.886,0.00835242533380609
9.888,0.00958686229902661
9.89,0.0116246338577786
9.892,0.0146303858013305
9.894,0.0184906971961728
9.896,0.0228140803840169
9.898,0.0271969578489757
9.9,0.0312357520751616
9.902,0.0345394846130014
9.904,0.0370069555381451
9.906,0.0388267434514659
9.908,0.0402000260201512
9.91,0.041327980911388
9.912,0.0424117857923639
9.914,0.0436443578015284
9.916,0.0450286219163644
9.918,0.046377510953388
9.92,0.0474956972003777
9.922,0.048187852945112
9.924,0.0482586504753694
9.926,0.0475269495272602
9.928,0.0461379211485282
9.93,0.0445630476985509
9.932,0.0432879989850372
9.934,0.0427984448156964
9.936,0.0435622299291824
9.938,0.0456372224758744
9.94,0.0486713140178778
9.942,0.0522945710482423
9.944,0.0561370600600177
9.946,0.0598288475462536
9.948,0.063
9.95,0.0653997954020015
9.952,0.0672543576837827
9.954,0.0689090222645631
9.956,0.0707091245635624
9.958,0.073
9.96,0.0760418438450347
9.962,0.0797542907775822
9.964,0.0839718353284976
9.966,0.0885289720286356
9.968,0.0932601954088514
9.97,0.0979999999999999
9.972,0.102606599935339
9.974,0.107033087757736
9.976,0.111256275612465
9.978,0.115252975644796
9.98,0.119
9.982,0.122598729830303
9.984,0.126648822315743
9.986,0.131874503643311
9.988,0.139
9.99,0.148378513827812
9.992,0.158879152588792
9.994,0.169
9.996,0.177866375656063
9.998,0.1871125426619
10,0.199
10.002,0.214572148952484
10.004,0.23
10.006,0.241349543940772
10.008,0.249139083644794
10.01,0.255
10.012,0.2603014074929
10.014,0.265363355004288
10.016,0.270243625013532
10.018,0.275
10.02,0.279628770959352
10.022,0.283880262952417
10.024,0.287443309556317
10.026,0.290006744348176
10.028,0.291259400905114
10.03,0.290890112804254
10.032,0.288611752104749
10.034,0.284690075952464
10.036,0.279943726579978
10.038,0.275215384701899
10.04,0.271347731032835
10.042,0.269130328555373
10.044,0.268131032415564
10.046,0.266695989922925
10.048,0.26311823065495
10.05,0.255690784189132
10.052,0.242861714585212
10.054,0.226644878994557
10.056,0.212397475996484
10.058,0.20051535038791
10.06,0.186501506428853
10.062,0.170778094453804
10.064,0.158718877570788
10.066,0.151551512429321
10.068,0.146134001492668
10.07,0.139134362259474
10.072,0.127379247889102
10.074,0.111343931737456
10.076,0.0950438725833724
10.078,0.0801591650733843
10.08,0.0659452617774088
10.082,0.0531444079690067
10.084,0.0440177629600561
10.086,0.0391406346833044
10.088,0.0373331219759657
10.09,0.037339010236318
10.092,0.0379020848626392
10.094,0.0377993096416226
10.096,0.0365707512935147
10.098,0.0345195794721149
10.1,0.0319821422196385
10.102,0.0292947875783001
10.104,0.0267849984734534
10.106,0.0245763601426369
10.108,0.0225885601355744
10.11,0.0207324208851281
10.112,0.0189187648241601
10.114,0.0170620913149532
10.116,0.0151614690964613
10.118,0.0133005362843088
10.12,0.0115666079235413
10.122,0.0100469990592038
10.124,0.00882902473634162
10.126,0.00800000000000001
10.128,0.00760981658308801
10.13,0.00755867296996993
10.132,0
10.134,0
10.136,0
10.138,0
10.14,0
10.142,0
10.144,0
10.146,0
10.148,0
10.15,0
10.152,0
10.154,0
10.156,0
10.158,0
10.16,0
10.162,0
10.164,0
10.166,0
10.168,0
10.17,0
10.172,0
10.174,0
10.176,0
10.178,0
10.18,0
10.182,0
10.184,0
10.186,0
10.188,0
10.19,0
10.192,0
10.194,0
10.196,0
10.198,0
10.2,0
10.202,0
10.204,0
10.206,0
10.208,0
10.21,0
10.212,0
10.214,0
10.216,0
10.218,0
10.22,0
10.222,0
10.224,0
10.226,0
10.228,0
10.23,0
10.232,0
10.234,0
10.236,0
10.238,0
10.24,0
10.242,0
10.244,0
10.246,0
10.248,0
10.25,0
10.252,0
10.254,0
10.256,0
10.258,0
10.26,0
10.262,0
10.264,0
10.266,0
10.268,0
10.27,0
10.272,0
10.274,0
10.276,0
10.278,0
10.28,0
10.282,0
10.284,0
10.286,0
10.288,0
10.29,0
10.292,0
10.294,0
10.296,0
10.298,0
10.3,0
10.302,0
10.304,0
10.306,0
10.308,0
10.31,0
10.312,0
10.314,0
10.316,0
10.318,0
10.32,0
10.322,0
10.324,0
10.326,0
10.328,0
10.33,0
10.332,0
10.334,0
10.336,0
10.338,0
10.34,0
10.342,0
10.344,0
10.346,0
10.348,0
10.35,0
10.352,0
10.354,0
10.356,0
10.358,0
10.36,0
10.362,0
10.364,-0.00341122183690235
10.366,-0.00262558322466033
10.368,-0.00195416071886167
10.37,-0.00133094603989153
10.372,-0.000689930908135128
10.374,3.4892956022381e-05
10.376,0.00090953383219583
10.378,0.002
10.38,0.00337229973904968
10.382,0.00509244132895975
10.384,0.00722643304934489
10.386,0.00984028317982005
10.388,0.013
10.39,0.0167025652305922
10.392,0.0206688543566754
10.394,0.0245507163044208
10.396,0.028
10.398,0.0307674817593395
10.4,0.0329996474573879
10.402,0.0349419103588489
10.404,0.0368396837284266
10.406,0.0389383808308247
10.408,0.0414834149307472
10.41,0.0447037730113203
10.412,0.0484506375793874
10.414,0.0521973866655089
10.416,0.0554009720186675
10.418,0.0575183453878461
10.42,0.0580289781310401
10.422,0.0569302926135359
10.424,0.0547376622079105
10.426,0.0519889798957538
10.428,0.0492221386586554
10.43,0.0469605967091873
10.432,0.045395812572507
10.434,0.0443872450863583
10.436,0.0437799183194667
10.438,0.043418856340558
10.44,0.0431490832183577
10.442,0.0428122513891604
10.444,0.0421724657433454
10.446,0.0409162836253769
10.448,0.0387268907472877
10.45,0.0352874728211109
10.452,0.0303049529630062
10.454,0.0240322145840481
10.456,0.0172681013902257
10.458,0.0108351944916548
10.46,0.00553494138601612
10.462,0.00168271648497476
10.464,-0.000892178885819161
10.466,-0.00238157701315089
10.468,-0.00297731018380587
10.47,-0.00287102844511333
10.472,-0.00225019033691159
10.474,-0.00129806289154827
10.476,-0.000197730901914883
10.478,0.000867720839097141
10.48,0.00171520753859633
10.482,0.00216901322331536
10.484,0.0022229047713434
10.486,0.00204013191212593
10.488,0.00179131319473264
10.49,0.00164706716823321
10.492,0.00177801238169734
10.494,0.00233986891277149
10.496,0.00314569199636844
10.498,0.00366587202466734
10.5,0.00335590091842403
10.502,0.00167127059839439
10.504,-0.00193252701466562
10.506,-0.00800000000000012
10.508,-0.0166100813235882
10.51,-0.0259794034983483
10.512,-0.0338590239239344
10.514,-0.038
10.516,-0.0379125877881391
10.518,-0.0401438379977072
10.52,-0.053
10.522,-0.078662121296825
10.524,-0.0948104419120364
10.526,-0.073
10.528,0.00267953893637424
10.53,0.098
10.532,0.178117881186059
10.534,0.255866881452979
10.536,0.356000000000002
10.538,0.491529085386149
10.54,0.628501383609573
10.542,0.721222990028212
10.544,0.724
10.546,0.614895432378527
10.548,0.467
10.55,0.356763489984521
10.552,0.279044292605157
10.554,0.208302948923214
10.556,0.119
10.558,-0.00209794443755174
10.56,-0.119
10.562,-0.193585615626068
10.564,-0.22843984822964
10.566,-0.236324156718392
10.568,-0.23
10.57,-0.219658787808854
10.572,-0.2052117331862
10.574,-0.184
10.576,-0.155658857942114
10.578,-0.129
10.58,-0.112300491341789
10.582,-0.102522462562715
10.584,-0.093799310614784
10.586,-0.0804779678558527
10.588,-0.0618166809782733
10.59,-0.0419850110088955
10.592,-0.0252532012974333
10.594,-0.013295874284988
10.596,-0.00519203150404735
10.598,9.21785958835075e-05
10.6,0.00357365292416462
10.602,0.00587933164404619
10.604,0.00724619817266858
10.606,0.00789428128603703
10.608,0.00804360976015678
10.61,0.00791331043088433
10.612,0.0077017655106561
10.614,0.00758661258848853
10.616,0.00774458731324928
10.618,0.00835242533380609
10.62,0.00958686229902661
10.622,0.0116246338577786
10.624,0.0146303858013305
10.626,0.0184906971961728
10.628,0.0228140803840169
10.63,0.0271969578489757
10.632,0.0312357520751616
10.634,0.0345394846130014
10.636,0.0370069555381451
10.638,0.0388267434514659
10.64,0.0402000260201512
10.642,0.041327980911388
10.644,0.0424117857923639
10.646,0.0436443578015284
10.648,0.0450286219163644
10.65,0.046377510953388
10.652,0.0474956972003777
10.654,0.048187852945112
10.656,0.0482586504753694
10.658,0.0475269495272602
10.66,0.0461379211485282
10.662,0.0445630476985509
10.664,0.0432879989850372
10.666,0.0427984448156964
10.668,0.0435622299291824
10.67,0.0456372224758744
10.672,0.0486713140178778
10.674,0.0522945710482423
10.676,0.0561370600600177
10.678,0.0598288475462536
10.68,0.063
10.682,0.0653997954020015
10.684,0.0672543576837827
10.686,0.0689090222645631
10.688,0.0707091245635624
10.69,0.073
10.692,0.0760418438450347
10.694,0.0797542907775822
10.696,0.0839718353284976
10.698,0.0885289720286356
10.7,0.0932601954088514
10.702,0.0979999999999999
10.704,0.102606599935339
10.706,0.107033087757736
10.708,0.111256275612465
10.71,0.115252975644796
10.712,0.119
10.714,0.122598729830303
10.716,0.126648822315743
10.718,0.131874503643311
10.72,0.139
10.722,0.148378513827812
10.724,0.158879152588792
10.726,0.169
10.728,0.177866375656063
10.73,0.1871125426619
10.732,0.199
10.734,0.214572148952484
10.736,0.23
10.738,0.241349543940772
10.74,0.249139083644794
10.742,0.255
10.744,0.2603014074929
10.746,0.265363355004288
10.748,0.270243625013532
10.75,0.275
10.752,0.279628770959352
10.754,0.283880262952417
10.756,0.287443309556317
10.758,0.290006744348176
10.76,0.291259400905114
10.762,0.290890112804254
10.764,0.288611752104749
10.766,0.284690075952464
10.768,0.279943726579978
10.77,0.275215384701899
10.772,0.271347731032835
10.774,0.269130328555373
10.776,0.268131032415564
10.778,0.266695989922925
10.78,0.26311823065495
10.782,0.255690784189132
10.784,0.242861714585212
10.786,0.226644878994557
10.788,0.212397475996484
10.79,0.20051535038791
10.792,0.186501506428853
10.794,0.170778094453804
10.796,0.158718877570788
10.798,0.151551512429321
10.8,0.146134001492668
10.802,0.139134362259474
10.804,0.127379247889102
10.806,0.111343931737456
10.808,0.0950438725833724
10.81,0.0801591650733843
10.812,0.0659452617774088
10.814,0.0531444079690067
10.816,0.0440177629600561
10.818,0.0391406346833044
10.82,0.0373331219759657
10.822,0.037339010236318
10.824,0.0379020848626392
10.826,0.0377993096416226
10.828,0.0365707512935147
10.83,0.0345195794721149
10.832,0.0319821422196385
10.834,0.0292947875783001
10.836,0.0267849984734534
10.838,0.0245763601426369
10.84,0.0225885601355744
10.842,0.0207324208851281
10.844,0.0189187648241601
10.846,0.0170620913149532
10.848,0.0151614690964613
10.85,0.0133005362843088
10.852,0.0115666079235413
10.854,0.0100469990592038
10.856,0.00882902473634162
10.858,0.00800000000000001
10.86,0.00760981658308801
10.862,0.00755867296996993
10.864,0
10.866,0
10.868,0
10.87,0
10.872,0
10.874,0
10.876,0
10.878,0
10.88,0
10.882,0
10.884,0
10.886,0
10.888,0
10.89,0
10.892,0
10.894,0
10.896,0
10.898,0
10.9,0
10.902,0
10.904,0
10.906,0
10.908,0
10.91,0
10.912,0
10.914,0
10.916,0
10.918,0
10.92,0
10.922,0
10.924,0
10.926,0
10.928,0
10.93,0
10.932,0
10.934,0
10.936,0
10.938,0
10.94,0
10.942,0
10.944,0
10.946,0
10.948,0
10.95,0
10.952,0
10.954,0
10.956,0
10.958,0
10.96,0
10.962,0
10.964,0
10.966,0
10.968,0
10.97,0
10.972,0
10.974,0
10.976,0
10.978,0
10.98,0
10.982,0
10.984,0
10.986,0
10.988,0
10.99,0
10.992,0
10.994,0
10.996,0
10.998,0
11,0
11.002,0
11.004,0
11.006,0
11.008,0
11.01,0
11.012,0
11.014,0
11.016,0
11.018,0
11.02,0
11.022,0
11.024,0
11.026,0
11.028,0
11.03,0
11.032,0
11.034,0
11.036,0
11.038,0
11.04,0
11.042,0
11.044,0
11.046,0
11.048,0
11.05,0
11.052,0
11.054,0
11.056,0
11.058,0
11.06,0
11.062,0
11.064,0
11.066,0
11.068,0
11.07,0
11.072,0
11.074,0
11.076,0
11.078,0
11.08,0
11.082,0
11.084,0
11.086,0
11.088,0
11.09,0
11.092,0
11.094,-0.00341122183690235
11.096,-0.00262558322466033
11.098,-0.00195416071886167
11.1,-0.00133094603989153
11.102,-0.000689930908135128
11.104,3.4892956022381e-05
11.106,0.00090953383219583
11.108,0.002
11.11,0.00337229973904968
11.112,0.00509244132895975
11.114,0.00722643304934489
11.116,0.00984028317982005
11.118,0.013
11.12,0.0167025652305922
11.122,0.0206688543566754
11.124,0.0245507163044208
11.126,0.028
11.128,0.0307674817593395
11.13,0.0329996474573879
11.132,0.0349419103588489
11.134,0.0368396837284266
11.136,0.0389383808308247
11.138,0.0414834149307472
11.14,0.0447037730113203
11.142,0.0484506375793874
11.144,0.0521973866655089
11.146,0.0554009720186675
11.148,0.0575183453878461
11.15,0.0580289781310401
11.152,0.0569302926135359
11.154,0.0547376622079105
11.156,0.0519889798957538
11.158,0.0492221386586554
11.16,0.0469605967091873
11.162,0.045395812572507
11.164,0.0443872450863583
11.166,0.0437799183194667
11.168,0.043418856340558
11.17,0.0431490832183577
11.172,0.0428122513891604
11.174,0.0421724657433454
11.176,0.0409162836253769
11.178,0.0387268907472877
11.18,0.0352874728211109
11.182,0.0303049529630062
11.184,0.0240322145840481
11.186,0.0172681013902257
11.188,0.0108351944916548
11.19,0.00553494138601612
11.192,0.00168271648497476
11.194,-0.000892178885819161
11.196,-0.00238157701315089
11.198,-0.00297731018380587
11.2,-0.00287102844511333
11.202,-0.00225019033691159
11.204,-0.00129806289154827
11.206,-0.000197730901914883
11.208,0.000867720839097141
11.21,0.00171520753859633
11.212,0.00216901322331536
11.214,0.0022229047713434
11.216,0.00204013191212593
11.218,0.00179131319473264
11.22,0.00164706716823321
11.222,0.00177801238169734
11.224,0.00233986891277149
11.226,0.00314569199636844
11.228,0.00366587202466734
11.23,0.00335590091842403
11.232,0.00167127059839439
11.234,-0.00193252701466562
11.236,-0.00800000000000012
11.238,-0.0166100813235882
11.24,-0.0259794034983483
11.242,-0.0338590239239344
11.244,-0.038
11.246,-0.0379125877881391
11.248,-0.0401438379977072
11.25,-0.053
11.252,-0.078662121296825
11.254,-0.0948104419120364
11.256,-0.073
11.258,0.00267953893637424
11.26,0.098
11.262,0.178117881186059
11.264,0.255866881452979
11.266,0.356000000000002
11.268,0.491529085386149
11.27,0.628501383609573
11.272,0.721222990028212
11.274,0.724
11.276,0.614895432378527
11.278,0.467
11.28,0.356763489984521
11.282,0.279044292605157
11.284,0.208302948923214
11.286,0.119
11.288,-0.00209794443755174
11.29,-0.119
11.292,-0.193585615626068
11.294,-0.22843984822964
11.296,-0.236324156718392
11.298,-0.23
11.3,-0.219658787808854
11.302,-0.2052117331862
11.304,-0.184
11.306,-0.155658857942114
11.308,-0.129
11.31,-0.112300491341789
11.312,-0.102522462562715
11.314,-0.093799310614784
11.316,-0.0804779678558527
11.318,-0.0618166809782733
11.32,-0.0419850110088955
11.322,-0.0252532012974333
11.324,-0.013295874284988
11.326,-0.00519203150404735
11.328,9.21785958835075e-05
11.33,0.00357365292416462
11.332,0.00587933164404619
11.334,0.00724619817266858
11.336,0.00789428128603703
11.338,0.00804360976015678
11.34,0.00791331043088433
11.342,0.0077017655106561
11.344,0.00758661258848853
11.346,0.00774458731324928
11.348,0.00835242533380609
11.35,0.00958686229902661
11.352,0.0116246338577786
11.354,0.0146303858013305
11.356,0.0184906971961728
11.358,0.0228140803840169
11.36,0.0271969578489757
11.362,0.0312357520751616
11.364,0.0345394846130014
11.366,0.0370069555381451
11.368,0.0388267434514659
11.37,0.0402000260201512
11.372,0.041327980911388
11.374,0.0424117857923639
11.376,0.0436443578015284
11.378,0.0450286219163644
11.38,0.046377510953388
11.382,0.0474956972003777
11.384,0.048187852945112
11.386,0.0482586504753694
11.388,0.0475269495272602
11.39,0.0461379211485282
11.392,0.0445630476985509
11.394,0.0432879989850372
11.396,0.0427984448156964
11.398,0.0435622299291824
11.4,0.0456372224758744
11.402,0.0486713140178778
11.404,0.0522945710482423
11.406,0.0561370600600177
11.408,0.0598288475462536
11.41,0.063
11.412,0.0653997954020015
11.414,0.0672543576837827
11.416,0.0689090222645631
11.418,0.0707091245635624
11.42,0.073
11.422,0.0760418438450347
11.424,0.0797542907775822
11.426,0.0839718353284976
11.428,0.0885289720286356
11.43,0.0932601954088514
11.432,0.0979999999999999
11.434,0.102606599935339
11.436,0.107033087757736
11.438,0.111256275612465
11.44,0.115252975644796
11.442,0.119
11.444,0.122598729830303
11.446,0.126648822315743
11.448,0.131874503643311
11.45,0.139
11.452,0.148378513827812
11.454,0.158879152588792
11.456,0.169
11.458,0.177866375656063
11.46,0.1871125426619
11.462,0.199
11.464,0.214572148952484
11.466,0.23
11.468,0.241349543940772
11.47,0.249139083644794
11.472,0.255
11.474,0.2603014074929
11.476,0.265363355004288
11.478,0.270243625013532
11.48,0.275
11.482,0.279628770959352
11.484,0.283880262952417
11.486,0.287443309556317
11.488,0.290006744348176
11.49,0.291259400905114
11.492,0.290890112804254
11.494,0.288611752104749
11.496,0.284690075952464
11.498,0.279943726579978
11.5,0.275215384701899
11.502,0.271347731032835
11.504,0.269130328555373
11.506,0.268131032415564
11.508,0.266695989922925
11.51,0.26311823065495
11.512,0.255690784189132
11.514,0.242861714585212
11.516,0.226644878994557
11.518,0.212397475996484
11.52,0.20051535038791
11.522,0.186501506428853
11.524,0.170778094453804
11.526,0.158718877570788
11.528,0.151551512429321
11.53,0.146134001492668
11.532,0.139134362259474
11.534,0.127379247889102
11.536,0.111343931737456
11.538,0.0950438725833724
11.54,0.0801591650733843
11.542,0.0659452617774088
11.544,0.0531444079690067
11.546,0.0440177629600561
11.548,0.0391406346833044
11.55,0.0373331219759657
11.552,0.037339010236318
11.554,0.0379020848626392
11.556,0.0377993096416226
11.558,0.0365707512935147
11.56,0.0345195794721149
11.562,0.0319821422196385
11.564,0.0292947875783001
11.566,0.0267849984734534
11.568,0.0245763601426369
11.57,0.0225885601355744
11.572,0.0207324208851281
11.574,0.0189187648241601
11.576,0.0170620913149532
11.578,0.0151614690964613
11.58,0.0133005362843088
11.582,0.0115666079235413
11.584,0.0100469990592038
11.586,0.00882902473634162
11.588,0.00800000000000001
11.59,0.00760981658308801
11.592,0.00755867296996993
11.594,0
11.596,0
11.598,0
11.6,0
11.602,0
11.604,0
11.606,0
11.608,0
11.61,0
11.612,0
11.614,0
11.616,0
11.618,0
11.62,0
11.622,0
11.624,0
11.626,0
11.628,0
11.63,0
11.632,0
11.634,0
11.636,0
11.638,0
11.64,0
11.642,0
11.644,0
11.646,0
11.648,0
11.65,0
11.652,0
11.654,0
11.656,0
11.658,0
11.66,0
11.662,0
11.664,0
11.666,0
11.668,0
11.67,0
11.672,0
11.674,0
11.676,0
11.678,0
11.68,0
11.682,0
11.684,0
11.686,0
11.688,0
11.69,0
11.692,0
11.694,0
11.696,0
11.698,0
11.7,0
11.702,0
11.704,0
11.706,0
11.708,0
11.71,0
11.712,0
11.714,0
11.716,0
11.718,0
11.72,0
11.722,0
11.724,0
11.726,0
11.728,0
11.73,0
11.732,0
11.734,0
11.736,0
11.738,0
11.74,0
11.742,0
11.744,0
11.746,0
11.748,0
11.75,0
11.752,0
11.754,0
11.756,0
11.758,0
11.76,0
11.762,0
11.764,0
11.766,0
11.768,0
11.77,0
11.772,0
11.774,0
11.776,0
11.778,0
11.78,0
11.782,0
11.784,0
11.786,0
11.788,0
11.79,0
11.792,0
11.794,0
11.796,0
11.798,0
11.8,0
11.802,0
11.804,0
11.806,0
11.808,0
11.81,0
11.812,0
11.814,0
11.816,0
11.818,0
11.82,0
11.822,0
11.824,-0.00341122183690235
11.826,-0.00262558322466033
11.828,-0.00195416071886167
11.83,-0.00133094603989153
11.832,-0.000689930908135128
11.834,3.4892956022381e-05
11.836,0.00090953383219583
11.838,0.002
11.84,0.00337229973904968
11.842,0.00509244132895975
11.844,0.00722643304934489
11.846,0.00984028317982005
11.848,0.013
11.85,0.0167025652305922
11.852,0.0206688543566754
11.854,0.0245507163044208
11.856,0.028
11.858,0.0307674817593395
11.86,0.0329996474573879
11.862,0.0349419103588489
11.864,0.0368396837284266
11.866,0.0389383808308247
11.868,0.0414834149307472
11.87,0.0447037730113203
11.872,0.0484506375793874
11.874,0.0521973866655089
11.876,0.0554009720186675
11.878,0.0575183453878461
11.88,0.0580289781310401
11.882,0.0569302926135359
11.884,0.0547376622079105
11.886,0.0519889798957538
11.888,0.0492221386586554
11.89,0.0469605967091873
11.892,0.045395812572507
11.894,0.0443872450863583
11.896,0.0437799183194667
11.898,0.043418856340558
11.9,0.0431490832183577
11.902,0.0428122513891604
11.904,0.0421724657433454
11.906,0.0409162836253769
11.908,0.0387268907472877
11.91,0.0352874728211109
11.912,0.0303049529630062
11.914,0.0240322145840481
11.916,0.0172681013902257
11.918,0.0108351944916548
11.92,0.00553494138601612
11.922,0.00168271648497476
11.924,-0.000892178885819161
11.926,-0.00238157701315089
11.928,-0.00297731018380587
11.93,-0.00287102844511333
11.932,-0.00225019033691159
11.934,-0.00129806289154827
11.936,-0.000197730901914883
11.938,0.000867720839097141
11.94,0.00171520753859633
11.942,0.00216901322331536
11.944,0.0022229047713434
11.946,0.00204013191212593
11.948,0.00179131319473264
11.95,0.00164706716823321
11.952,0.00177801238169734
11.954,0.00233986891277149
11.956,0.00314569199636844
11.958,0.00366587202466734
11.96,0.00335590091842403
11.962,0.00167127059839439
11.964,-0.00193252701466562
11.966,-0.00800000000000012
11.968,-0.0166100813235882
11.97,-0.0259794034983483
11.972,-0.0338590239239344
11.974,-0.038
11.976,-0.0379125877881391
11.978,-0.0401438379977072
11.98,-0.053
11.982,-0.078662121296825
11.984,-0.0948104419120364
11.986,-0.073
11.988,0.00267953893637424
11.99,0.098
11.992,0.178117881186059
11.994,0.255866881452979
11.996,0.356000000000002
11.998,0.491529085386149
12,0.628501383609573
12.002,0.721222990028212
12.004,0.724
12.006,0.614895432378527
12.008,0.467
12.01,0.356763489984521
12.012,0.279044292605157
12.014,0.208302948923214
12.016,0.119
12.018,-0.00209794443755174
12.02,-0.119
12.022,-0.193585615626068
12.024,-0.22843984822964
12.026,-0.236324156718392
12.028,-0.23
12.03,-0.219658787808854
12.032,-0.2052117331862
12.034,-0.184
12.036,-0.155658857942114
12.038,-0.129
12.04,-0.112300491341789
12.042,-0.102522462562715
12.044,-0.093799310614784
12.046,-0.0804779678558527
12.048,-0.0618166809782733
12.05,-0.0419850110088955
12.052,-0.0252532012974333
12.054,-0.013295874284988
12.056,-0.00519203150404735
12.058,9.21785958835075e-05
12.06,0.00357365292416462
12.062,0.00587933164404619
12.064,0.00724619817266858
12.066,0.00789428128603703
12.068,0.00804360976015678
12.07,0.00791331043088433
12.072,0.0077017655106561
12.074,0.00758661258848853
12.076,0.00774458731324928
12.078,0.00835242533380609
12.08,0.00958686229902661
12.082,0.0116246338577786
12.084,0.0146303858013305
12.086,0.0184906971961728
12.088,0.0228140803840169
12.09,0.0271969578489757
12.092,0.0312357520751616
12.094,0.0345394846130014
12.096,0.0370069555381451
12.098,0.0388267434514659
12.1,0.0402000260201512
12.102,0.041327980911388
12.104,0.0424117857923639
12.106,0.0436443578015284
12.108,0.0450286219163644
12.11,0.046377510953388
12.112,0.0474956972003777
12.114,0.048187852945112
12.116,0.0482586504753694
12.118,0.0475269495272602
12.12,0.0461379211485282
12.122,0.0445630476985509
12.124,0.0432879989850372
12.126,0.0427984448156964
12.128,0.0435622299291824
12.13,0.0456372224758744
12.132,0.0486713140178778
12.134,0.0522945710482423
12.136,0.0561370600600177
12.138,0.0598288475462536
12.14,0.063
12.142,0.0653997954020015
12.144,0.0672543576837827
12.146,0.0689090222645631
12.148,0.0707091245635624
12.15,0.073
12.152,0.0760418438450347
12.154,0.0797542907775822
12.156,0.0839718353284976
12.158,0.0885289720286356
12.16,0.0932601954088514
12.162,0.0979999999999999
12.164,0.102606599935339
12.166,0.107033087757736
12.168,0.111256275612465
12.17,0.115252975644796
12.172,0.119
12.174,0.122598729830303
12.176,0.126648822315743
12.178,0.131874503643311
12.18,0.139
12.182,0.148378513827812
12.184,0.158879152588792
12.186,0.169
12.188,0.177866375656063
12.19,0.1871125426619
12.192,0.199
12.194,0.214572148952484
12.196,0.23
12.198,0.241349543940772
12.2,0.249139083644794
12.202,0.255
12.204,0.2603014074929
12.206,0.265363355004288
12.208,0.270243625013532
12.21,0.275
12.212,0.279628770959352
12.214,0.283880262952417
12.216,0.287443309556317
12.218,0.290006744348176
12.22,0.291259400905114
12.222,0.290890112804254
12.224,0.288611752104749
12.226,0.284690075952464
12.228,0.279943726579978
12.23,0.275215384701899
12.232,0.271347731032835
12.234,0.269130328555373
12.236,0.268131032415564
12.238,0.266695989922925
12.24,0.26311823065495
12.242,0.255690784189132
12.244,0.242861714585212
12.246,0.226644878994557
12.248,0.212397475996484
12.25,0.20051535038791
12.252,0.186501506428853
12.254,0.170778094453804
12.256,0.158718877570788
12.258,0.151551512429321
12.26,0.146134001492668
12.262,0.139134362259474
12.264,0.127379247889102
12.266,0.111343931737456
12.268,0.0950438725833724
12.27,0.0801591650733843
12.272,0.0659452617774088
12.274,0.0531444079690067
12.276,0.0440177629600561
12.278,0.0391406346833044
12.28,0.0373331219759657
12.282,0.037339010236318
12.284,0.0379020848626392
12.286,0.0377993096416226
12.288,0.0365707512935147
12.29,0.0345195794721149
12.292,0.0319821422196385
12.294,0.0292947875783001
12.296,0.0267849984734534
12.298,0.0245763601426369
12.3,0.0225885601355744
12.302,0.0207324208851281
12.304,0.0189187648241601
12.306,0.0170620913149532
12.308,0.0151614690964613
12.31,0.0133005362843088
12.312,0.0115666079235413
12.314,0.0100469990592038
12.316,0.00882902473634162
12.318,0.00800000000000001
12.32,0.00760981658308801
12.322,0.00755867296996993
12.324,0
12.326,0
12.328,0
12.33,0
12.332,0
12.334,0
12.336,0
12.338,0
12.34,0
12.342,0
12.344,0
12.346,0
12.348,0
12.35,0
12.352,0
12.354,0
12.356,0
12.358,0
12.36,0
12.362,0
12.364,0
12.366,0
12.368,0
12.37,0
12.372,0
12.374,0
12.376,0
12.378,0
12.38,0
12.382,0
12.384,0
12.386,0
12.388,0
12.39,0
12.392,0
12.394,0
12.396,0
12.398,0
12.4,0
12.402,0
12.404,0
12.406,0
12.408,0
12.41,0
12.412,0
12.414,0
12.416,0
12.418,0
12.42,0
12.422,0
12.424,0
12.426,0
12.428,0
12.43,0
12.432,0
12.434,0
12.436,0
12.438,0
12.44,0
12.442,0
12.444,0
12.446,0
12.448,0
12.45,0
12.452,0
12.454,0
12.456,0
12.458,0
12.46,0
12.462,0
12.464,0
12.466,0
12.468,0
12.47,0
12.472,0
12.474,0
12.476,0
12.478,0
12.48,0
12.482,0
12.484,0
12.486,0
12.488,0
12.49,0
12.492,0
12.494,0
12.496,0
12.498,0
12.5,0
12.502,0
12.504,0
12.506,0
12.508,0
12.51,0
12.512,0
12.514,0
12.516,0
12.518,0
12.52,0
12.522,0
12.524,0
12.526,0
12.528,0
12.53,0
12.532,0
12.534,0
12.536,0
12.538,0
12.54,0
12.542,0
12.544,0
12.546,0
12.548,0
12.55,0
12.552,0
12.554,-0.00341122183690235
12.556,-0.00262558322466033
12.558,-0.00195416071886167
12.56,-0.00133094603989153
12.562,-0.000689930908135128
12.564,3.4892956022381e-05
12.566,0.00090953383219583
12.568,0.002
12.57,0.00337229973904968
12.572,0.00509244132895975
12.574,0.00722643304934489
12.576,0.00984028317982005
12.578,0.013
12.58,0.0167025652305922
12.582,0.0206688543566754
12.584,0.0245507163044208
12.586,0.028
12.588,0.0307674817593395
12.59,0.0329996474573879
12.592,0.0349419103588489
12.594,0.0368396837284266
12.596,0.0389383808308247
12.598,0.0414834149307472
12.6,0.0447037730113203
12.602,0.0484506375793874
12.604,0.0521973866655089
12.606,0.0554009720186675
12.608,0.0575183453878461
12.61,0.0580289781310401
12.612,0.0569302926135359
12.614,0.0547376622079105
12.616,0.0519889798957538
12.618,0.0492221386586554
12.62,0.0469605967091873
12.622,0.045395812572507
12.624,0.0443872450863583
12.626,0.0437799183194667
12.628,0.043418856340558
12.63,0.0431490832183577
12.632,0.0428122513891604
12.634,0.0421724657433454
12.636,0.0409162836253769
12.638,0.0387268907472877
12.64,0.0352874728211109
12.642,0.0303049529630062
12.644,0.0240322145840481
12.646,0.0172681013902257
12.648,0.0108351944916548
12.65,0.00553494138601612
12.652,0.00168271648497476
12.654,-0.000892178885819161
12.656,-0.00238157701315089
12.658,-0.00297731018380587
12.66,-0.00287102844511333
12.662,-0.00225019033691159
12.664,-0.00129806289154827
12.666,-0.000197730901914883
12.668,0.000867720839097141
12.67,0.00171520753859633
12.672,0.00216901322331536
12.674,0.0022229047713434
12.676,0.00204013191212593
12.678,0.00179131319473264
12.68,0.00164706716823321
12.682,0.00177801238169734
12.684,0.00233986891277149
12.686,0.00314569199636844
12.688,0.00366587202466734
12.69,0.00335590091842403
12.692,0.00167127059839439
12.694,-0.00193252701466562
12.696,-0.00800000000000012
12.698,-0.0166100813235882
12.7,-0.0259794034983483
12.702,-0.0338590239239344
12.704,-0.038
12.706,-0.0379125877881391
12.708,-0.0401438379977072
12.71,-0.053
12.712,-0.078662121296825
12.714,-0.0948104419120364
12.716,-0.073
12.718,0.00267953893637424
12.72,0.098
12.722,0.178117881186059
12.724,0.255866881452979
12.726,0.356000000000002
12.728,0.491529085386149
12.73,0.628501383609573
12.732,0.721222990028212
12.734,0.724
12.736,0.614895432378527
12.738,0.467
12.74,0.356763489984521
12.742,0.279044292605157
12.744,0.208302948923214
12.746,0.119
12.748,-0.00209794443755174
12.75,-0.119
12.752,-0.193585615626068
12.754,-0.22843984822964
12.756,-0.236324156718392
12.758,-0.23
12.76,-0.219658787808854
12.762,-0.2052117331862
12.764,-0.184
12.766,-0.155658857942114
12.768,-0.129
12.77,-0.112300491341789
12.772,-0.102522462562715
12.774,-0.093799310614784
12.776,-0.0804779678558527
12.778,-0.0618166809782733
12.78,-0.0419850110088955
12.782,-0.0252532012974333
12.784,-0.013295874284988
12.786,-0.00519203150404735
12.788,9.21785958835075e-05
12.79,0.00357365292416462
12.792,0.00587933164404619
12.794,0.00724619817266858
12.796,0.00789428128603703
12.798,0.00804360976015678
12.8,0.00791331043088433
12.802,0.0077017655106561
12.804,0.00758661258848853
12.806,0.00774458731324928
12.808,0.00835242533380609
12.81,0.00958686229902661
12.812,0.0116246338577786
12.814,0.0146303858013305
12.816,0.0184906971961728
12.818,0.0228140803840169
12.82,0.0271969578489757
12.822,0.0312357520751616
12.824,0.0345394846130014
12.826,0.0370069555381451
12.828,0.0388267434514659
12.83,0.0402000260201512
12.832,0.041327980911388
12.834,0.0424117857923639
12.836,0.0436443578015284
12.838,0.0450286219163644
12.84,0.046377510953388
12.842,0.0474956972003777
12.844,0.048187852945112
12.846,0.0482586504753694
12.848,0.0475269495272602
12.85,0.0461379211485282
12.852,0.0445630476985509
12.854,0.0432879989850372
12.856,0.0427984448156964
12.858,0.0435622299291824
12.86,0.0456372224758744
12.862,0.0486713140178778
12.864,0.0522945710482423
12.866,0.0561370600600177
12.868,0.0598288475462536
12.87,0.063
12.872,0.0653997954020015
12.874,0.0672543576837827
12.876,0.0689090222645631
12.878,0.0707091245635624
12.88,0.073
12.882,0.0760418438450347
12.884,0.0797542907775822
12.886,0.0839718353284976
12.888,0.0885289720286356
12.89,0.0932601954088514
12.892,0.0979999999999999
12.894,0.102606599935339
12.896,0.107033087757736
12.898,0.111256275612465
12.9,0.115252975644796
12.902,0.119
12.904,0.122598729830303
12.906,0.126648822315743
12.908,0.131874503643311
12.91,0.139
12.912,0.148378513827812
12.914,0.158879152588792
12.916,0.169
12.918,0.177866375656063
12.92,0.1871125426619
12.922,0.199
12.924,0.214572148952484
12.926,0.23
12.928,0.241349543940772
12.93,0.249139083644794
12.932,0.255
12.934,0.2603014074929
12.936,0.265363355004288
12.938,0.270243625013532
12.94,0.275
12.942,0.279628770959352
12.944,0.283880262952417
12.946,0.287443309556317
12.948,0.290006744348176
12.95,0.291259400905114
12.952,0.290890112804254
12.954,0.288611752104749
12.956,0.284690075952464
12.958,0.279943726579978
12.96,0.275215384701899
12.962,0.271347731032835
12.964,0.269130328555373
12.966,0.268131032415564
12.968,0.266695989922925
12.97,0.26311823065495
12.972,0.255690784189132
12.974,0.242861714585212
12.976,0.226644878994557
12.978,0.212397475996484
12.98,0.20051535038791
12.982,0.186501506428853
12.984,0.170778094453804
12.986,0.158718877570788
12.988,0.151551512429321
12.99,0.146134001492668
12.992,0.139134362259474
12.994,0.127379247889102
12.996,0.111343931737456
12.998,0.0950438725833724
13,0.0801591650733843
13.002,0.0659452617774088
13.004,0.0531444079690067
13.006,0.0440177629600561
13.008,0.0391406346833044
13.01,0.0373331219759657
13.012,0.037339010236318
13.014,0.0379020848626392
13.016,0.0377993096416226
13.018,0.0365707512935147
13.02,0.0345195794721149
13.022,0.0319821422196385
13.024,0.0292947875783001
13.026,0.0267849984734534
13.028,0.0245763601426369
13.03,0.0225885601355744
13.032,0.0207324208851281
13.034,0.0189187648241601
13.036,0.0170620913149532
13.038,0.0151614690964613
13.04,0.0133005362843088
13.042,0.0115666079235413
13.044,0.0100469990592038
13.046,0.00882902473634162
13.048,0.00800000000000001
13.05,0.00760981658308801
13.052,0.00755867296996993
13.054,0
13.056,0
13.058,0
13.06,0
13.062,0
13.064,0
13.066,0
13.068,0
13.07,0
13.072,0
13.074,0
13.076,0
13.078,0
13.08,0
13.082,0
13.084,0
13.086,0
13.088,0
13.09,0
13.092,0
13.094,0
13.096,0
13.098,0
13.1,0
13.102,0
13.104,0
13.106,0
13.108,0
13.11,0
13.112,0
13.114,0
13.116,0
13.118,0
13.12,0
13.122,0
13.124,0
13.126,0
13.128,0
13.13,0
13.132,0
13.134,0
13.136,0
13.138,0
13.14,0
13.142,0
13.144,0
13.146,0
13.148,0
13.15,0
13.152,0
13.154,0
13.156,0
13.158,0
13.16,0
13.162,0
13.164,0
13.166,0
13.168,0
13.17,0
13.172,0
13.174,0
13.176,0
13.178,0
13.18,0
13.182,0
13.184,0
13.186,0
13.188,0
13.19,0
13.192,0
13.194,0
13.196,0
13.198,0
13.2,0
13.202,0
13.204,0
13.206,0
13.208,0
13.21,0
13.212,0
13.214,0
13.216,0
13.218,0
13.22,0
13.222,0
13.224,0
13.226,0
13.228,0
13.23,0
13.232,0
13.234,0
13.236,0
13.238,0
13.24,0
13.242,0
13.244,0
13.246,0
13.248,0
13.25,0
13.252,0
13.254,0
13.256,0
13.258,0
13.26,0
13.262,0
13.264,0
13.266,0
13.268,0
13.27,0
13.272,0
13.274,0
13.276,0
13.278,0
13.28,0
13.282,0
13.284,0
13.286,-0.00341122183690235
13.288,-0.00262558322466033
13.29,-0.00195416071886167
13.292,-0.00133094603989153
13.294,-0.000689930908135128
13.296,3.4892956022381e-05
13.298,0.00090953383219583
13.3,0.002
13.302,0.00337229973904968
13.304,0.00509244132895975
13.306,0.00722643304934489
13.308,0.00984028317982005
13.31,0.013
13.312,0.0167025652305922
13.314,0.0206688543566754
13.316,0.0245507163044208
13.318,0.028
13.32,0.0307674817593395
13.322,0.0329996474573879
13.324,0.0349419103588489
13.326,0.0368396837284266
13.328,0.0389383808308247
13.33,0.0414834149307472
13.332,0.0447037730113203
13.334,0.0484506375793874
13.336,0.0521973866655089
13.338,0.0554009720186675
13.34,0.0575183453878461
13.342,0.0580289781310401
13.344,0.0569302926135359
13.346,0.0547376622079105
13.348,0.0519889798957538
13.35,0.0492221386586554
13.352,0.0469605967091873
13.354,0.045395812572507
13.356,0.0443872450863583
13.358,0.0437799183194667
13.36,0.043418856340558
13.362,0.0431490832183577
13.364,0.0428122513891604
13.366,0.0421724657433454
13.368,0.0409162836253769
13.37,0.0387268907472877
13.372,0.0352874728211109
13.374,0.0303049529630062
13.376,0.0240322145840481
13.378,0.0172681013902257
13.38,0.0108351944916548
13.382,0.00553494138601612
13.384,0.00168271648497476
13.386,-0.000892178885819161
13.388,-0.00238157701315089
13.39,-0.00297731018380587
13.392,-0.00287102844511333
13.394,-0.00225019033691159
13.396,-0.00129806289154827
13.398,-0.000197730901914883
13.4,0.000867720839097141
13.402,0.00171520753859633
13.404,0.00216901322331536
13.406,0.0022229047713434
13.408,0.00204013191212593
13.41,0.00179131319473264
13.412,0.00164706716823321
13.414,0.00177801238169734
13.416,0.00233986891277149
13.418,0.00314569199636844
13.42,0.00366587202466734
13.422,0.00335590091842403
13.424,0.00167127059839439
13.426,-0.00193252701466562
13.428,-0.00800000000000012
13.43,-0.0166100813235882
13.432,-0.0259794034983483
13.434,-0.0338590239239344
13.436,-0.038
13.438,-0.0379125877881391
13.44,-0.0401438379977072
13.442,-0.053
13.444,-0.078662121296825
13.446,-0.0948104419120364
13.448,-0.073
13.45,0.00267953893637424
13.452,0.098
13.454,0.178117881186059
13.456,0.255866881452979
13.458,0.356000000000002
13.46,0.491529085386149
13.462,0.628501383609573
13.464,0.721222990028212
13.466,0.724
13.468,0.614895432378527
13.47,0.467
13.472,0.356763489984521
13.474,0.279044292605157
13.476,0.208302948923214
13.478,0.119
13.48,-0.00209794443755174
13.482,-0.119
13.484,-0.193585615626068
13.486,-0.22843984822964
13.488,-0.236324156718392
13.49,-0.23
13.492,-0.219658787808854
13.494,-0.2052117331862
13.496,-0.184
13.498,-0.155658857942114
13.5,-0.129
13.502,-0.112300491341789
13.504,-0.102522462562715
13.506,-0.093799310614784
13.508,-0.0804779678558527
13.51,-0.0618166809782733
13.512,-0.0419850110088955
13.514,-0.0252532012974333
13.516,-0.013295874284988
13.518,-0.00519203150404735
13.52,9.21785958835075e-05
13.522,0.00357365292416462
13.524,0.00587933164404619
13.526,0.00724619817266858
13.528,0.00789428128603703
13.53,0.00804360976015678
13.532,0.00791331043088433
13.534,0.0077017655106561
13.536,0.00758661258848853
13.538,0.00774458731324928
13.54,0.00835242533380609
