0.002,0
0.004,0
0.006,0
0.008,0
0.01,0
0.012,0
0.014,0
0.016,0
0.018,0
0.02,0
0.022,0
0.024,0
0.026,0
0.028,0
0.03,0
0.032,0
0.034,0
0.036,0
0.038,0
0.04,0
0.042,0
0.044,-0.00708460711772357
0.046,-0.00875867789606505
0.048,-0.0097707094803553
0.05,-0.0100503433721833
0.052,-0.0095272210731378
0.054,-0.00813098408480784
0.056,-0.00579127390878231
0.058,-0.00243773204665004
0.06,0.002
0.062,0.00759228072957896
0.064,0.0144094686404979
0.066,0.0225219222311678
0.068,0.032
0.07,0.0426795580987543
0.072,0.0534584432925861
0.074,0.063
0.076,0.0703086533523926
0.078,0.0757531513327301
0.08,0.0800433226368714
0.082,0.0838889959606751
0.084,0.088
0.086,0.0928813623772117
0.088,0.0982189064207034
0.09,0.103493654385375
0.092,0.108186628526127
0.094,0.11177885109786
0.096,0.113769020525728
0.098,0.114062387150768
0.1,0.112970753229892
0.102,0.11082359719027
0.104,0.107950397459071
0.106,0.104680632463465
0.108,0.101322448742521
0.11,0.0976933594089958
0.112,0.0931202441493368
0.114,0.0869086507618899
0.116,0.0783641270450015
0.118,0.0668822379065784
0.12,0.0539289417744214
0.122,0.0429403503473251
0.124,0.0351370667089276
0.126,0.02943416821815
0.128,0.0246658413406259
0.13,0.0201113077210971
0.132,0.0154948241834132
0.134,0.010559996907037
0.136,0.00505043207143152
0.138,-0.00126930799882813
0.14,-0.00815266964158817
0.142,-0.0148711078571161
0.144,-0.0206751215005672
0.146,-0.0248404509021935
0.148,-0.0272233903194679
0.15,-0.0282607879370846
0.152,-0.0284147334148342
0.154,-0.0281473164125075
0.156,-0.0279110227506538
0.158,-0.0279374499472761
0.16,-0.0282373072178306
0.162,-0.0288116999385322
0.164,-0.0296617334855958
0.166,-0.0307885132352366
0.168,-0.0321931445636694
0.17,-0.0338708461454447
0.172,-0.0356814425168278
0.174,-0.0373493640757983
0.176,-0.0385931545186718
0.178,-0.0391313575417635
0.18,-0.0386825168413888
0.182,-0.0369941879126011
0.184,-0.0344811976214325
0.186,-0.0322256442048932
0.188,-0.0313386376987318
0.19,-0.0329312881386968
0.192,-0.0381147055605367
0.194,-0.048
0.196,-0.0626784974835354
0.198,-0.0781623880003917
0.2,-0.0894440775305174
0.202,-0.0915159720538615
0.204,-0.0793704775503728
0.206,-0.048
0.208,0.00787945198275486
0.21,0.0946574592451774
0.212,0.219
0.214,0.381817728105234
0.216,0.561000000000002
0.218,0.731376282654542
0.22,0.878557782582414
0.222,0.990851141183019
0.224,1.05656299985575
0.226,1.064
0.228,1.00488859171392
0.23,0.884634459890632
0.232,0.712063098122032
0.234,0.496
0.236,0.254558087983522
0.238,0.043
0.24,-0.0893680600355242
0.242,-0.154215339725855
0.244,-0.178454949553258
0.246,-0.189
0.248,-0.207222774035877
0.25,-0.232332244580807
0.252,-0.257996557042236
0.254,-0.277883856827612
0.256,-0.285662289344385
0.258,-0.275
0.26,-0.243436904532212
0.262,-0.204
0.264,-0.169825574630218
0.266,-0.139
0.268,-0.107510796946915
0.27,-0.078
0.272,-0.0537956915439227
0.274,-0.0343156316944211
0.276,-0.018
0.278,-0.00368003270056166
0.28,0.00824880719840165
0.282,0.0170000000000001
0.284,0.0220597302817335
0.286,0.024004999718662
0.288,0.0236855142602354
0.29,0.0219509798559031
0.292,0.0196511024551151
0.294,0.0176355880073211
0.296,0.0167297140094783
0.298,0.0171969035512132
0.3,0.0187387253148218
0.302,0.0210323195301075
0.304,0.0237548264268736
0.306,0.0265833862349236
0.308,0.0291951391840608
0.31,0.0312672255040886
0.312,0.0324905874761291
0.314,0.0328736145616375
0.316,0.0327421434024014
0.318,0.0324358126915276
0.32,0.0322942611221227
0.322,0.0326571273872933
0.324,0.033864050180146
0.326,0.0362546681937876
0.328,0.0401436841055604
0.33,0.0452722722302258
0.332,0.0508080785199653
0.334,0.0558938129111955
0.336,0.0596998208139116
0.338,0.0549474564126803
0.34,0.0545734403591931
0.342,0.054298488176283
0.344,0.0546621710305248
0.346,0.0562040600884937
0.348,0.0594637265167646
0.35,0.0649807414819123
0.352,0.073269975495806
0.354,0.0842781840120751
0.356,0.09738400742611
0.358,0.111941385478595
0.36,0.127304257910214
0.362,0.142850674447582
0.364,0.158278712147056
0.366,0.172902968354783
0.368,0.185827648056189
0.37,0.196498036949592
0.372,0.205714225815834
0.374,0.214398477460586
0.376,0.223254146001451
0.378,0.232975067786991
0.38,0.244061577029515
0.382,0.256454679203963
0.384,0.270150454268388
0.386,0.285156281118085
0.388,0.301393870884956
0.39,0.316832252313131
0.392,0.32800776329052
0.394,0.334793288933961
0.396,0.340095053606989
0.398,0.346950397459071
0.4,0.35747288341017
0.402,0.370059633574133
0.404,0.381693359408996
0.406,0.389853260551709
0.408,0.395945691172045
0.41,0.402364127045002
0.412,0.410435256326079
0.414,0.418928941774421
0.416,0.427657863309465
0.418,0.435137066708928
0.42,0.439386097950089
0.422,0.444665841340626
0.424,0.454961075831202
0.426,0.465494824183413
0.428,0.470670516676458
0.43,0.470742607605665
0.432,0.467449263415508
0.434,0.463010641888037
0.436,0.460128892142884
0.438,0.460862008949794
0.44,0.46458230362343
0.442,0.469416423056237
0.444,0.47291046021344
0.446,0.472585266585166
0.448,0.466809857754299
0.45,0.457355509513998
0.452,0.447062550052724
0.454,0.438138860213894
0.456,0.429388582089815
0.458,0.418762522125199
0.46,0.404211486764763
0.462,0.384524912963687
0.464,0.361852646420672
0.466,0.339318557483172
0.468,0.319059951173608
0.47,0.298732181362796
0.472,0.274868642458237
0.474,0.245798602478462
0.476,0.217005812087399
0.478,0.193320153623873
0.48,0.171774355795107
0.482,0.148724838000196
0.484,0.125068711861303
0.486,0.102144976936283
0.488,0.0785194923026897
0.49,0.0530846159272992
0.492,0.0288118418140891
0.494,0.00970900650176437
0.496,0.000164792613863596
0.498,0.00494872885875924
0.5,0.0288469024702515
0.502,0.0769281697502474
0.504,0.155513525623625
0.506,0.271346911541894
0.508,0.425432300259127
0.51,0.595958998066896
0.512,0.758263052744273
0.514,0.898471235568279
0.516,1.00538837617951
0.518,1.06741964420636
0.52,1.07257054926508
0.522,1.01224903314837
0.524,0.891542272443941
0.526,0.718957252438237
0.528,0.503000958417714
0.53,0.261476007052636
0.532,0.0495233883660587
0.534,-0.0834836837469533
0.536,-0.149139244392468
0.538,-0.174281191556017
0.54,-0.18574742322313
0.542,-0.204835009866868
0.544,-0.232332244580807
0.546,-0.257996557042236
0.548,-0.277883856827612
0.55,-0.285662289344385
0.552,-0.275
0.554,-0.243436904532212
0.556,-0.204
0.558,-0.169825574630218
0.56,-0.139
0.562,-0.107510796946915
0.564,-0.078
0.566,-0.0537956915439227
0.568,-0.0343156316944211
0.57,-0.018
0.572,-0.00368003270056166
0.574,0.00824880719840165
0.576,0.0170000000000001
0.578,0.0220597302817335
0.58,0.024004999718662
0.582,0.0236855142602354
0.584,0.0219509798559031
0.586,0.0196511024551151
0.588,0.0176355880073211
0.59,0.0167297140094783
0.592,0.0171969035512132
0.594,0.0187387253148218
0.596,0.0210323195301075
0.598,0.0237548264268736
0.6,0.0265833862349236
0.602,0.0291951391840608
0.604,0.0312672255040886
0.606,0.0324905874761291
0.608,0.0328736145616375
0.61,0.0327421434024014
0.612,0.0324358126915276
0.614,0.0322942611221227
0.616,0.0326571273872933
0.618,0.033864050180146
0.62,0.0362546681937876
0.622,0.0401436841055604
0.624,0.0452722722302258
0.626,0.0508080785199653
0.628,0.0558938129111955
0.63,0.0596998208139116
0.632,0.0549474564126803
0.634,0.0545734403591931
0.636,0.054298488176283
0.638,0.0546621710305248
0.64,0.0562040600884937
0.642,0.0594637265167646
0.644,0.0649807414819123
0.646,0.073269975495806
0.648,0.0842781840120751
0.65,0.09738400742611
0.652,0.111941385478595
0.654,0.127304257910214
0.656,0.142850674447582
0.658,0.158278712147056
0.66,0.172902968354783
0.662,0.185827648056189
0.664,0.196498036949592
0.666,0.205714225815834
0.668,0.214398477460586
0.67,0.223254146001451
0.672,0.232975067786991
0.674,0.244061577029515
0.676,0.256454679203963
0.678,0.270150454268388
0.68,0.285156281118085
0.682,0.301393870884956
0.684,0.316832252313131
0.686,0.32800776329052
0.688,0.334793288933961
0.69,0.340095053606989
0.692,0.346950397459071
0.694,0.35747288341017
0.696,0.370059633574133
0.698,0.381693359408996
0.7,0.389853260551709
0.702,0.395945691172045
0.704,0.402364127045002
0.706,0.410435256326079
0.708,0.418928941774421
0.71,0.427657863309465
0.712,0.435137066708928
0.714,0.439386097950089
0.716,0.444665841340626
0.718,0.454961075831202
0.72,0.465494824183413
0.722,0.470670516676458
0.724,0.470742607605665
0.726,0.467449263415508
0.728,0.463010641888037
0.73,0.460128892142884
0.732,0.460862008949794
0.734,0.46458230362343
0.736,0.469416423056237
0.738,0.47291046021344
0.74,0.472585266585166
0.742,0.466809857754299
0.744,0.457355509513998
0.746,0.447062550052724
0.748,0.438138860213894
0.75,0.429388582089815
0.752,0.418762522125199
0.754,0.404211486764763
0.756,0.384524912963687
0.758,0.361852646420672
0.76,0.339318557483172
0.762,0.319059951173608
0.764,0.298732181362796
0.766,0.274868642458237
0.768,0.245798602478462
0.77,0.217005812087399
0.772,0.193320153623873
0.774,0.171774355795107
0.776,0.148724838000196
0.778,0.125068711861303
0.78,0.102144976936283
0.782,0.0785194923026897
0.784,0.0530846159272992
0.786,0.0288118418140891
0.788,0.00970900650176437
0.79,0.000164792613863596
0.792,0.00494872885875924
0.794,0.0288469024702515
0.796,0.0769281697502474
0.798,0.155513525623625
0.8,0.271346911541894
0.802,0.425432300259127
0.804,0.595958998066896
0.806,0.758263052744273
0.808,0.898471235568279
0.81,1.00538837617951
0.812,1.06741964420636
0.814,1.07257054926508
0.816,1.01224903314837
0.818,0.891542272443941
0.82,0.718957252438237
0.822,0.503000958417714
0.824,0.261476007052636
0.826,0.0495233883660587
0.828,-0.0834836837469533
0.83,-0.149139244392468
0.832,-0.174281191556017
0.834,-0.18574742322313
0.836,-0.204835009866868
0.838,-0.232332244580807
0.84,-0.257996557042236
0.842,-0.277883856827612
0.844,-0.285662289344385
0.846,-0.275
0.848,-0.243436904532212
0.85,-0.204
0.852,-0.169825574630218
0.854,-0.139
0.856,-0.107510796946915
0.858,-0.078
0.86,-0.0537956915439227
0.862,-0.0343156316944211
0.864,-0.018
0.866,-0.00368003270056166
0.868,0.00824880719840165
0.87,0.0170000000000001
0.872,0.0220597302817335
0.874,0.024004999718662
0.876,0.0236855142602354
0.878,0.0219509798559031
0.88,0.0196511024551151
0.882,0.0176355880073211
0.884,0.0167297140094783
0.886,0.0171969035512132
0.888,0.0187387253148218
0.89,0.0210323195301075
0.892,0.0237548264268736
0.894,0.0265833862349236
0.896,0.0291951391840608
0.898,0.0312672255040886
0.9,0.0324905874761291
0.902,0.0328736145616375
0.904,0.0327421434024014
0.906,0.0324358126915276
0.908,0.0322942611221227
0.91,0.0326571273872933
0.912,0.033864050180146
0.914,0.0362546681937876
0.916,0.0401436841055604
0.918,0.0452722722302258
0.92,0.0508080785199653
0.922,0.0558938129111955
0.924,0.0596998208139116
0.926,0.0620320635304039
0.928,0.0562475111375346
0.93,0.0553105197605732
0.932,0.0549418049223528
0.934,0.0556809377894482
0.936,0.0580674895284346
0.938,0.0626410313058868
0.94,0.0699164336336737
0.942,0.0798404519654251
0.944,0.0917917266965311
0.946,0.105124197567676
0.948,0.119191804319544
0.95,0.13337259667875
0.952,0.147599154048302
0.954,0.162124083160951
0.956,0.176286091348775
0.958,0.1891893835972
0.96,0.200269727835497
0.962,0.210108306156444
0.964,0.219408472677648
0.966,0.228864063747666
0.968,0.239180214652303
0.97,0.251117135160471
0.972,0.264875706303716
0.974,0.280463306977333
0.976,0.297801648313223
0.978,0.314842082885262
0.98,0.32771439666548
0.982,0.335884922854837
0.984,0.342242209646611
0.986,0.34982359719027
0.988,0.360742648405776
0.99,0.373417817295078
0.992,0.385322448742521
0.994,0.394426375811368
0.996,0.402157284559492
0.998,0.41090865076189
1,0.421917145464502
1.002,0.431882237906578
1.004,0.438646454736562
1.006,0.442940350347325
1.008,0.445088996440866
1.01,0.44943416821815
1.012,0.459515609450731
1.014,0.470111307721097
1.016,0.475605343952834
1.018,0.476252172441271
1.02,0.473769003485768
1.022,0.469894003530797
1.024,0.466847330358412
1.026,0.466666022593245
1.028,0.468747633025056
1.03,0.471799362473512
1.032,0.473947857831057
1.034,0.472739212062915
1.036,0.466542440751973
1.038,0.457119215852145
1.04,0.447088977249346
1.042,0.438438717484449
1.044,0.429962974810516
1.046,0.419612555672263
1.048,0.405338266514404
1.05,0.38592954429212
1.052,0.363530348002447
1.054,0.341129153854555
1.056,0.320727872732579
1.058,0.29997597180567
1.06,0.275406845481328
1.062,0.245349761778087
1.064,0.215317483158611
1.066,0.190807163332704
1.068,0.169518802378568
1.07,0.147837831494034
1.072,0.126661362301268
1.074,0.107328394358123
1.076,0.0884047867421531
1.078,0.0677631134108346
1.08,0.0442957323309454
1.082,0.0209906960318901
1.084,0.0022366871372077
1.086,-0.00719676564472949
1.088,-0.0025235750801213
1.09,0.0210487177674925
1.092,0.0687355183612027
1.094,0.147004370787072
1.096,0.262614572153893
1.098,0.416776726172127
1.1,0.587886770089733
1.102,0.751289735640407
1.104,0.893095017578903
1.106,1.00170778553363
1.108,1.06513354912083
1.11,1.07136044143446
1.112,1.01179640426723
1.114,0.891528614206837
1.116,0.719064056539746
1.118,0.502917919069114
1.12,0.261081476349581
1.122,0.048884376288571
1.124,-0.0842919647021376
1.126,-0.150041581728614
1.128,-0.175202372776388
1.13,-0.186612235830991
1.132,-0.207222774035877
1.134,-0.232332244580807
1.136,-0.257996557042236
1.138,-0.277883856827612
1.14,-0.285662289344385
1.142,-0.275
1.144,-0.243436904532212
1.146,-0.204
1.148,-0.169825574630218
1.15,-0.139
1.152,-0.107510796946915
1.154,-0.078
1.156,-0.0537956915439227
1.158,-0.0343156316944211
1.16,-0.018
1.162,-0.00368003270056166
1.164,0.00824880719840165
1.166,0.0170000000000001
1.168,0.0220597302817335
1.17,0.024004999718662
1.172,0.0236855142602354
1.174,0.0219509798559031
1.176,0.0196511024551151
1.178,0.0176355880073211
1.18,0.0167297140094783
1.182,0.0171969035512132
1.184,0.0187387253148218
1.186,0.0210323195301075
1.188,0.0237548264268736
1.19,0.0265833862349236
1.192,0.0291951391840608
1.194,0.0312672255040886
1.196,0.0324905874761291
1.198,0.0328736145616375
1.2,0.0327421434024014
1.202,0.0324358126915276
1.204,0.0322942611221227
1.206,0.0326571273872933
1.208,0.033864050180146
1.21,0.0362546681937876
1.212,0.0401436841055604
1.214,0.0452722722302258
1.216,0.0508080785199653
1.218,0.0558938129111955
1.22,0.0596998208139116
1.222,0.0620320635304039
1.224,0.0562475111375346
1.226,0.0553105197605732
1.228,0.0549418049223528
1.23,0.0556809377894482
1.232,0.0580674895284346
1.234,0.0626410313058868
1.236,0.0699164336336737
1.238,0.0798404519654251
1.24,0.0917917266965311
1.242,0.105124197567676
1.244,0.119191804319544
1.246,0.13337259667875
1.248,0.147599154048302
1.25,0.162124083160951
1.252,0.176286091348775
1.254,0.1891893835972
1.256,0.200269727835497
1.258,0.210108306156444
1.26,0.219408472677648
1.262,0.228864063747666
1.264,0.239180214652303
1.266,0.251117135160471
1.268,0.264875706303716
1.27,0.280463306977333
1.272,0.297801648313223
1.274,0.314842082885262
1.276,0.32771439666548
1.278,0.335884922854837
1.28,0.342242209646611
1.282,0.34982359719027
1.284,0.360742648405776
1.286,0.373417817295078
1.288,0.385322448742521
1.29,0.394426375811368
1.292,0.402157284559492
1.294,0.41090865076189
1.296,0.421917145464502
1.298,0.431882237906578
1.3,0.438646454736562
1.302,0.442940350347325
1.304,0.445088996440866
1.306,0.44943416821815
1.308,0.459515609450731
1.31,0.470111307721097
1.312,0.475605343952834
1.314,0.476252172441271
1.316,0.473769003485768
1.318,0.469894003530797
1.32,0.466847330358412
1.322,0.466666022593245
1.324,0.468747633025056
1.326,0.471799362473512
1.328,0.473947857831057
1.33,0.472739212062915
1.332,0.466542440751973
1.334,0.457119215852145
1.336,0.447088977249346
1.338,0.438438717484449
1.34,0.429962974810516
1.342,0.419612555672263
1.344,0.405338266514404
1.346,0.38592954429212
1.348,0.363530348002447
1.35,0.341129153854555
1.352,0.320727872732579
1.354,0.29997597180567
1.356,0.275406845481328
1.358,0.245349761778087
1.36,0.215317483158611
1.362,0.190807163332704
1.364,0.169518802378568
1.366,0.147837831494034
1.368,0.126661362301268
1.37,0.107328394358123
1.372,0.0884047867421531
1.374,0.0677631134108346
1.376,0.0442957323309454
1.378,0.0209906960318901
1.38,0.0022366871372077
1.382,-0.00719676564472949
1.384,-0.0025235750801213
1.386,0.0210487177674925
1.388,0.0687355183612027
1.39,0.147004370787072
1.392,0.262614572153893
1.394,0.416776726172127
1.396,0.587886770089733
1.398,0.751289735640407
1.4,0.893095017578903
1.402,1.00170778553363
1.404,1.06513354912083
1.406,1.07136044143446
1.408,1.01179640426723
1.41,0.891528614206837
1.412,0.719064056539746
1.414,0.502917919069114
1.416,0.261081476349581
1.418,0.048884376288571
1.42,-0.0842919647021376
1.422,-0.150041581728614
1.424,-0.175202372776388
1.426,-0.186612235830991
1.428,-0.207222774035877
1.43,-0.232332244580807
1.432,-0.257996557042236
1.434,-0.277883856827612
1.436,-0.285662289344385
1.438,-0.275
1.44,-0.243436904532212
1.442,-0.204
1.444,-0.169825574630218
1.446,-0.139
1.448,-0.107510796946915
1.45,-0.078
1.452,-0.0537956915439227
1.454,-0.0343156316944211
1.456,-0.018
1.458,-0.00368003270056166
1.46,0.00824880719840165
1.462,0.0170000000000001
1.464,0.0220597302817335
1.466,0.024004999718662
1.468,0.0236855142602354
1.47,0.0219509798559031
1.472,0.0196511024551151
1.474,0.0176355880073211
1.476,0.0167297140094783
1.478,0.0171969035512132
1.48,0.0187387253148218
1.482,0.0210323195301075
1.484,0.0237548264268736
1.486,0.0265833862349236
1.488,0.0291951391840608
1.49,0.0312672255040886
1.492,0.0324905874761291
1.494,0.0328736145616375
1.496,0.0327421434024014
1.498,0.0324358126915276
1.5,0.0322942611221227
1.502,0.0326571273872933
1.504,0.033864050180146
1.506,0.0362546681937876
1.508,0.0401436841055604
1.51,0.0452722722302258
1.512,0.0508080785199653
1.514,0.0558938129111955
1.516,0.0596998208139116
1.518,0.0620320635304039
1.52,0.0562475111375346
1.522,0.0553105197605732
1.524,0.0549418049223528
1.526,0.0556809377894482
1.528,0.0580674895284346
1.53,0.0626410313058868
1.532,0.0699164336336737
1.534,0.0798404519654251
1.536,0.0917917266965311
1.538,0.105124197567676
1.54,0.119191804319544
1.542,0.13337259667875
1.544,0.147599154048302
1.546,0.162124083160951
1.548,0.176286091348775
1.55,0.1891893835972
1.552,0.200269727835497
1.554,0.210108306156444
1.556,0.219408472677648
1.558,0.228864063747666
1.56,0.239180214652303
1.562,0.251117135160471
1.564,0.264875706303716
1.566,0.280463306977333
1.568,0.297801648313223
1.57,0.314842082885262
1.572,0.32771439666548
1.574,0.335884922854837
1.576,0.342242209646611
1.578,0.34982359719027
1.58,0.360742648405776
1.582,0.373417817295078
1.584,0.385322448742521
1.586,0.394426375811368
1.588,0.402157284559492
1.59,0.41090865076189
1.592,0.421917145464502
1.594,0.431882237906578
1.596,0.438646454736562
1.598,0.442940350347325
1.6,0.445088996440866
1.602,0.44943416821815
1.604,0.459515609450731
1.606,0.470111307721097
1.608,0.475605343952834
1.61,0.476252172441271
1.612,0.473769003485768
1.614,0.469894003530797
1.616,0.466847330358412
1.618,0.466666022593245
1.62,0.468747633025056
1.622,0.471799362473512
1.624,0.473947857831057
1.626,0.472739212062915
1.628,0.466542440751973
1.63,0.457119215852145
1.632,0.447088977249346
1.634,0.438438717484449
1.636,0.429962974810516
1.638,0.419612555672263
1.64,0.405338266514404
1.642,0.38592954429212
1.644,0.363530348002447
1.646,0.341129153854555
1.648,0.320727872732579
1.65,0.29997597180567
1.652,0.275406845481328
1.654,0.245349761778087
1.656,0.215317483158611
1.658,0.190807163332704
1.66,0.169518802378568
1.662,0.147837831494034
1.664,0.126661362301268
1.666,0.107328394358123
1.668,0.0884047867421531
1.67,0.0677631134108346
1.672,0.0442957323309454
1.674,0.0209906960318901
1.676,0.0022366871372077
1.678,-0.00719676564472949
1.68,-0.0025235750801213
1.682,0.0210487177674925
1.684,0.0687355183612027
1.686,0.147004370787072
1.688,0.262614572153893
1.69,0.416776726172127
1.692,0.587886770089733
1.694,0.751289735640407
1.696,0.893095017578903
1.698,1.00170778553363
1.7,1.06513354912083
1.702,1.07136044143446
1.704,1.01179640426723
1.706,0.891528614206837
1.708,0.719064056539746
1.71,0.502917919069114
1.712,0.261081476349581
1.714,0.048884376288571
1.716,-0.0842919647021376
1.718,-0.150041581728614
1.72,-0.175202372776388
1.722,-0.186612235830991
1.724,-0.207222774035877
1.726,-0.232332244580807
1.728,-0.257996557042236
1.73,-0.277883856827612
1.732,-0.285662289344385
1.734,-0.275
1.736,-0.243436904532212
1.738,-0.204
1.74,-0.169825574630218
1.742,-0.139
1.744,-0.107510796946915
1.746,-0.078
1.748,-0.0537956915439227
1.75,-0.0343156316944211
1.752,-0.018
1.754,-0.00368003270056166
1.756,0.00824880719840165
1.758,0.0170000000000001
1.76,0.0220597302817335
1.762,0.024004999718662
1.764,0.0236855142602354
1.766,0.0219509798559031
1.768,0.0196511024551151
1.77,0.0176355880073211
1.772,0.0167297140094783
1.774,0.0171969035512132
1.776,0.0187387253148218
1.778,0.0210323195301075
1.78,0.0237548264268736
1.782,0.0265833862349236
1.784,0.0291951391840608
1.786,0.0312672255040886
1.788,0.0324905874761291
1.79,0.0328736145616375
1.792,0.0327421434024014
1.794,0.0324358126915276
1.796,0.0322942611221227
1.798,0.0326571273872933
1.8,0.033864050180146
1.802,0.0362546681937876
1.804,0.0401436841055604
1.806,0.0452722722302258
1.808,0.0508080785199653
1.81,0.0558938129111955
1.812,0.0596998208139116
1.814,0.0620320635304039
1.816,0.0562475111375346
1.818,0.0553105197605732
1.82,0.0549418049223528
1.822,0.0556809377894482
1.824,0.0580674895284346
1.826,0.0626410313058868
1.828,0.0699164336336737
1.83,0.0798404519654251
1.832,0.0917917266965311
1.834,0.105124197567676
1.836,0.119191804319544
1.838,0.13337259667875
1.84,0.147599154048302
1.842,0.162124083160951
1.844,0.176286091348775
1.846,0.1891893835972
1.848,0.200269727835497
1.85,0.210108306156444
1.852,0.219408472677648
1.854,0.228864063747666
1.856,0.239180214652303
1.858,0.251117135160471
1.86,0.264875706303716
1.862,0.280463306977333
1.864,0.297801648313223
1.866,0.314842082885262
1.868,0.32771439666548
1.87,0.335884922854837
1.872,0.342242209646611
1.874,0.34982359719027
1.876,0.360742648405776
1.878,0.373417817295078
1.88,0.385322448742521
1.882,0.394426375811368
1.884,0.402157284559492
1.886,0.41090865076189
1.888,0.421917145464502
1.89,0.431882237906578
1.892,0.438646454736562
1.894,0.442940350347325
1.896,0.445088996440866
1.898,0.44943416821815
1.9,0.459515609450731
1.902,0.470111307721097
1.904,0.475605343952834
1.906,0.476252172441271
1.908,0.473769003485768
1.91,0.469894003530797
1.912,0.466847330358412
1.914,0.466666022593245
1.916,0.468747633025056
1.918,0.471799362473512
1.92,0.473947857831057
1.922,0.472739212062915
1.924,0.466542440751973
1.926,0.457119215852145
1.928,0.447088977249346
1.93,0.438438717484449
1.932,0.429962974810516
1.934,0.419612555672263
1.936,0.405338266514404
1.938,0.38592954429212
1.94,0.363530348002447
1.942,0.341129153854555
1.944,0.320727872732579
1.946,0.29997597180567
1.948,0.275406845481328
1.95,0.245349761778087
1.952,0.215317483158611
1.954,0.190807163332704
1.956,0.169518802378568
1.958,0.147837831494034
1.96,0.126661362301268
1.962,0.107328394358123
1.964,0.0884047867421531
1.966,0.0677631134108346
1.968,0.0442957323309454
1.97,0.0209906960318901
1.972,0.0022366871372077
1.974,-0.00719676564472949
1.976,-0.0025235750801213
1.978,0.0210487177674925
1.98,0.0687355183612027
1.982,0.147004370787072
1.984,0.262614572153893
1.986,0.416776726172127
1.988,0.587886770089733
1.99,0.751289735640407
1.992,0.893095017578903
1.994,1.00170778553363
1.996,1.06513354912083
1.998,1.07136044143446
2,1.01179640426723
2.002,0.891528614206837
2.004,0.719064056539746
2.006,0.502917919069114
2.008,0.261081476349581
2.01,0.048884376288571
2.012,-0.0842919647021376
2.014,-0.150041581728614
2.016,-0.175202372776388
2.018,-0.186612235830991
2.02,-0.207222774035877
2.022,-0.232332244580807
2.024,-0.257996557042236
2.026,-0.277883856827612
2.028,-0.285662289344385
2.03,-0.275
2.032,-0.243436904532212
2.034,-0.204
2.036,-0.169825574630218
2.038,-0.139
2.04,-0.107510796946915
2.042,-0.078
2.044,-0.0537956915439227
2.046,-0.0343156316944211
2.048,-0.018
2.05,-0.00368003270056166
2.052,0.00824880719840165
2.054,0.0170000000000001
2.056,0.0220597302817335
2.058,0.024004999718662
2.06,0.0236855142602354
2.062,0.0219509798559031
2.064,0.0196511024551151
2.066,0.0176355880073211
2.068,0.0167297140094783
2.07,0.0171969035512132
2.072,0.0187387253148218
2.074,0.0210323195301075
2.076,0.0237548264268736
2.078,0.0265833862349236
2.08,0.0291951391840608
2.082,0.0312672255040886
2.084,0.0324905874761291
2.086,0.0328736145616375
2.088,0.0327421434024014
2.09,0.0324358126915276
2.092,0.0322942611221227
2.094,0.0326571273872933
2.096,0.033864050180146
2.098,0.0362546681937876
2.1,0.0401436841055604
2.102,0.0452722722302258
2.104,0.0508080785199653
2.106,0.0558938129111955
2.108,0.0596998208139116
2.11,0.0620320635304039
2.112,0.0562475111375346
2.114,0.0553105197605732
2.116,0.0549418049223528
2.118,0.0556809377894482
2.12,0.0580674895284346
2.122,0.0626410313058868
2.124,0.0699164336336737
2.126,0.0798404519654251
2.128,0.0917917266965311
2.13,0.105124197567676
2.132,0.119191804319544
2.134,0.13337259667875
2.136,0.147599154048302
2.138,0.162124083160951
2.14,0.176286091348775
2.142,0.1891893835972
2.144,0.200269727835497
2.146,0.210108306156444
2.148,0.219408472677648
2.15,0.228864063747666
2.152,0.239180214652303
2.154,0.251117135160471
2.156,0.264875706303716
2.158,0.280463306977333
2.16,0.297801648313223
2.162,0.314842082885262
2.164,0.32771439666548
2.166,0.335884922854837
2.168,0.342242209646611
2.17,0.34982359719027
2.172,0.360742648405776
2.174,0.373417817295078
2.176,0.385322448742521
2.178,0.394426375811368
2.18,0.402157284559492
2.182,0.41090865076189
2.184,0.421917145464502
2.186,0.431882237906578
2.188,0.438646454736562
2.19,0.442940350347325
2.192,0.445088996440866
2.194,0.44943416821815
2.196,0.459515609450731
2.198,0.470111307721097
2.2,0.475605343952834
2.202,0.476252172441271
2.204,0.473769003485768
2.206,0.469894003530797
2.208,0.466847330358412
2.21,0.466666022593245
2.212,0.468747633025056
2.214,0.471799362473512
2.216,0.473947857831057
2.218,0.472739212062915
2.22,0.466542440751973
2.222,0.457119215852145
2.224,0.447088977249346
2.226,0.438438717484449
2.228,0.429962974810516
2.23,0.419612555672263
2.232,0.405338266514404
2.234,0.38592954429212
2.236,0.363530348002447
2.238,0.341129153854555
2.24,0.320727872732579
2.242,0.29997597180567
2.244,0.275406845481328
2.246,0.245349761778087
2.248,0.215317483158611
2.25,0.190807163332704
2.252,0.169518802378568
2.254,0.147837831494034
2.256,0.126661362301268
2.258,0.107328394358123
2.26,0.0884047867421531
2.262,0.0677631134108346
2.264,0.0442957323309454
2.266,0.0209906960318901
2.268,0.0022366871372077
2.27,-0.00719676564472949
2.272,-0.0025235750801213
2.274,0.0210487177674925
2.276,0.0687355183612027
2.278,0.147004370787072
2.28,0.262614572153893
2.282,0.416776726172127
2.284,0.587886770089733
2.286,0.751289735640407
2.288,0.893095017578903
2.29,1.00170778553363
2.292,1.06513354912083
2.294,1.07136044143446
2.296,1.01179640426723
2.298,0.891528614206837
2.3,0.719064056539746
2.302,0.502917919069114
2.304,0.261081476349581
2.306,0.048884376288571
2.308,-0.0842919647021376
2.31,-0.150041581728614
2.312,-0.175202372776388
2.314,-0.186612235830991
2.316,-0.207222774035877
2.318,-0.232332244580807
2.32,-0.257996557042236
2.322,-0.277883856827612
2.324,-0.285662289344385
2.326,-0.275
2.328,-0.243436904532212
2.33,-0.204
2.332,-0.169825574630218
2.334,-0.139
2.336,-0.107510796946915
2.338,-0.078
2.34,-0.0537956915439227
2.342,-0.0343156316944211
2.344,-0.018
2.346,-0.00368003270056166
2.348,0.00824880719840165
2.35,0.0170000000000001
2.352,0.0220597302817335
2.354,0.024004999718662
2.356,0.0236855142602354
2.358,0.0219509798559031
2.36,0.0196511024551151
2.362,0.0176355880073211
2.364,0.0167297140094783
2.366,0.0171969035512132
2.368,0.0187387253148218
2.37,0.0210323195301075
2.372,0.0237548264268736
2.374,0.0265833862349236
2.376,0.0291951391840608
2.378,0.0312672255040886
2.38,0.0324905874761291
2.382,0.0328736145616375
2.384,0.0327421434024014
2.386,0.0324358126915276
2.388,0.0322942611221227
2.39,0.0326571273872933
2.392,0.033864050180146
2.394,0.0362546681937876
2.396,0.0401436841055604
2.398,0.0452722722302258
2.4,0.0508080785199653
2.402,0.0558938129111955
2.404,0.0596998208139116
2.406,0.0620320635304039
2.408,0.0633321182552582
2.41,0.0569845905389147
2.412,0.055953836506643
2.414,0.0559605716812762
2.416,0.0575443672293891
2.418,0.0612447943175568
2.42,0.0675767234576482
2.422,0.0764869101032928
2.424,0.087353994649881
2.426,0.0995319168380971
2.428,0.112374616408625
2.43,0.12526014308808
2.432,0.13812107627947
2.434,0.151444525062197
2.436,0.165507206154943
2.438,0.179647826889786
2.44,0.192961074483104
2.442,0.204663808176107
2.444,0.215118301373506
2.446,0.225018390423863
2.448,0.235069210612978
2.45,0.24623577278326
2.452,0.259538162260224
2.454,0.275188559012661
2.456,0.293108674172471
2.458,0.31124986031353
2.46,0.325724227237612
2.462,0.335591556229798
2.464,0.343333843567487
2.466,0.351970753229892
2.468,0.363615848136974
2.47,0.376687582290684
2.472,0.388680632463465
2.474,0.398055465144894
2.476,0.406730399819151
2.478,0.417120244149337
2.48,0.43046166918139
2.482,0.443364127045001
2.484,0.451599750868719
2.486,0.453928941774421
2.488,0.452892280079264
2.49,0.455137066708928
2.492,0.464283936328255
2.494,0.474665841340626
2.496,0.480221827490518
2.498,0.481186999717647
2.5,0.479278568321373
2.502,0.476213743601057
2.504,0.473730692001172
2.506,0.473384460808773
2.508,0.474551646668507
2.51,0.475964691875138
2.512,0.476330797248331
2.514,0.473776609680532
2.516,0.466696386229722
2.518,0.456851798849818
2.52,0.446852683587492
2.522,0.438465144681071
2.524,0.430262832081071
2.526,0.420186948392964
2.528,0.406188300061468
2.53,0.38705632404176
2.532,0.36493497933088
2.534,0.342806855436331
2.536,0.322538469103962
2.538,0.30164389336464
2.54,0.276650635924202
2.542,0.245887964801179
2.544,0.214868642458236
2.546,0.189118834403917
2.548,0.167005812087399
2.55,0.145582278077495
2.552,0.125774355795107
2.554,0.108921044798088
2.556,0.093588204163993
2.558,0.0776484078502979
2.56,0.0589742298144807
2.562,0.0364745865487464
2.564,0.0135183766673335
2.566,-0.00512487112138538
2.568,-0.01466906958361
2.57,-0.0103217597828803
2.572,0.0128560663784478
2.574,0.0602263635246491
2.576,0.138272031399071
2.578,0.253958998066894
2.58,0.408704498194964
2.582,0.580913452985867
2.584,0.74591351765103
2.586,0.88941442693303
2.588,0.999421690448101
2.59,1.06392344129021
2.592,1.07090781255331
2.594,1.01178274603012
2.596,0.891635418308346
2.598,0.718981017191146
2.6,0.502523388366059
2.602,0.260442464272093
2.604,0.0480760953333866
2.606,-0.085194302038283
2.608,-0.150962762948985
2.61,-0.176067185384249
2.612,-0.189
2.614,-0.207222774035877
2.616,-0.232332244580807
2.618,-0.257996557042236
2.62,-0.277883856827612
2.622,-0.285662289344385
2.624,-0.275
2.626,-0.243436904532212
2.628,-0.204
2.63,-0.169825574630218
2.632,-0.139
2.634,-0.107510796946915
2.636,-0.078
2.638,-0.0537956915439227
2.64,-0.0343156316944211
2.642,-0.018
2.644,-0.00368003270056166
2.646,0.00824880719840165
2.648,0.0170000000000001
2.65,0.0220597302817335
2.652,0.024004999718662
2.654,0.0236855142602354
2.656,0.0219509798559031
2.658,0.0196511024551151
2.66,0.0176355880073211
2.662,0.0167297140094783
2.664,0.0171969035512132
2.666,0.0187387253148218
2.668,0.0210323195301075
2.67,0.0237548264268736
2.672,0.0265833862349236
2.674,0.0291951391840608
2.676,0.0312672255040886
2.678,0.0324905874761291
2.68,0.0328736145616375
2.682,0.0327421434024014
2.684,0.0324358126915276
2.686,0.0322942611221227
2.688,0.0326571273872933
2.69,0.033864050180146
2.692,0.0362546681937876
2.694,0.0401436841055604
2.696,0.0452722722302258
2.698,0.0508080785199653
2.7,0.0558938129111955
2.702,0.0596998208139116
2.704,0.0620320635304039
2.706,0.0633321182552582
2.708,0.0569845905389147
2.71,0.055953836506643
2.712,0.0559605716812762
2.714,0.0575443672293891
2.716,0.0612447943175568
2.718,0.0675767234576482
2.72,0.0764869101032928
2.722,0.087353994649881
2.724,0.0995319168380971
2.726,0.112374616408625
2.728,0.12526014308808
2.73,0.13812107627947
2.732,0.151444525062197
2.734,0.165507206154943
2.736,0.179647826889786
2.738,0.192961074483104
2.74,0.204663808176107
2.742,0.215118301373506
2.744,0.225018390423863
2.746,0.235069210612978
2.748,0.24623577278326
2.75,0.259538162260224
2.752,0.275188559012661
2.754,0.293108674172471
2.756,0.31124986031353
2.758,0.325724227237612
2.76,0.335591556229798
2.762,0.343333843567487
2.764,0.351970753229892
2.766,0.363615848136974
2.768,0.376687582290684
2.77,0.388680632463465
2.772,0.398055465144894
2.774,0.406730399819151
2.776,0.417120244149337
2.778,0.43046166918139
2.78,0.443364127045001
2.782,0.451599750868719
2.784,0.453928941774421
2.786,0.452892280079264
2.788,0.455137066708928
2.79,0.464283936328255
2.792,0.474665841340626
2.794,0.480221827490518
2.796,0.481186999717647
2.798,0.479278568321373
2.8,0.476213743601057
2.802,0.473730692001172
2.804,0.473384460808773
2.806,0.474551646668507
2.808,0.475964691875138
2.81,0.476330797248331
2.812,0.473776609680532
2.814,0.466696386229722
2.816,0.456851798849818
2.818,0.446852683587492
2.82,0.438465144681071
2.822,0.430262832081071
2.824,0.420186948392964
2.826,0.406188300061468
2.828,0.38705632404176
2.83,0.36493497933088
2.832,0.342806855436331
2.834,0.322538469103962
2.836,0.30164389336464
2.838,0.276650635924202
2.84,0.245887964801179
2.842,0.214868642458236
2.844,0.189118834403917
2.846,0.167005812087399
2.848,0.145582278077495
2.85,0.125774355795107
2.852,0.108921044798088
2.854,0.093588204163993
2.856,0.0776484078502979
2.858,0.0589742298144807
2.86,0.0364745865487464
2.862,0.0135183766673335
2.864,-0.00512487112138538
2.866,-0.01466906958361
2.868,-0.0103217597828803
2.87,0.0128560663784478
2.872,0.0602263635246491
2.874,0.138272031399071
2.876,0.253958998066894
2.878,0.408704498194964
2.88,0.580913452985867
2.882,0.74591351765103
2.884,0.88941442693303
2.886,0.999421690448101
2.888,1.06392344129021
2.89,1.07090781255331
2.892,1.01178274603012
2.894,0.891635418308346
2.896,0.718981017191146
2.898,0.502523388366059
2.9,0.260442464272093
2.902,0.0480760953333866
2.904,-0.085194302038283
2.906,-0.150962762948985
2.908,-0.176067185384249
2.91,-0.189
2.912,-0.207222774035877
2.914,-0.232332244580807
2.916,-0.257996557042236
2.918,-0.277883856827612
2.92,-0.285662289344385
2.922,-0.275
2.924,-0.243436904532212
2.926,-0.204
2.928,-0.169825574630218
2.93,-0.139
2.932,-0.107510796946915
2.934,-0.078
2.936,-0.0537956915439227
2.938,-0.0343156316944211
2.94,-0.018
2.942,-0.00368003270056166
2.944,0.00824880719840165
2.946,0.0170000000000001
2.948,0.0220597302817335
2.95,0.024004999718662
2.952,0.0236855142602354
2.954,0.0219509798559031
2.956,0.0196511024551151
2.958,0.0176355880073211
2.96,0.0167297140094783
2.962,0.0171969035512132
2.964,0.0187387253148218
2.966,0.0210323195301075
2.968,0.0237548264268736
2.97,0.0265833862349236
2.972,0.0291951391840608
2.974,0.0312672255040886
2.976,0.0324905874761291
2.978,0.0328736145616375
2.98,0.0327421434024014
2.982,0.0324358126915276
2.984,0.0322942611221227
2.986,0.0326571273872933
2.988,0.033864050180146
2.99,0.0362546681937876
2.992,0.0401436841055604
2.994,0.0452722722302258
2.996,0.0508080785199653
2.998,0.0558938129111955
3,0.0596998208139116
3.002,0.0620320635304039
3.004,0.0633321182552582
3.006,0.0569845905389147
3.008,0.055953836506643
3.01,0.0559605716812762
3.012,0.0575443672293891
3.014,0.0612447943175568
3.016,0.0675767234576482
3.018,0.0764869101032928
3.02,0.087353994649881
3.022,0.0995319168380971
3.024,0.112374616408625
3.026,0.12526014308808
3.028,0.13812107627947
3.03,0.151444525062197
3.032,0.165507206154943
3.034,0.179647826889786
3.036,0.192961074483104
3.038,0.204663808176107
3.04,0.215118301373506
3.042,0.225018390423863
3.044,0.235069210612978
3.046,0.24623577278326
3.048,0.259538162260224
3.05,0.275188559012661
3.052,0.293108674172471
3.054,0.31124986031353
3.056,0.325724227237612
3.058,0.335591556229798
3.06,0.343333843567487
3.062,0.351970753229892
3.064,0.363615848136974
3.066,0.376687582290684
3.068,0.388680632463465
3.07,0.398055465144894
3.072,0.406730399819151
3.074,0.417120244149337
3.076,0.43046166918139
3.078,0.443364127045001
3.08,0.451599750868719
3.082,0.453928941774421
3.084,0.452892280079264
3.086,0.455137066708928
3.088,0.464283936328255
3.09,0.474665841340626
3.092,0.480221827490518
3.094,0.481186999717647
3.096,0.479278568321373
3.098,0.476213743601057
3.1,0.473730692001172
3.102,0.473384460808773
3.104,0.474551646668507
3.106,0.475964691875138
3.108,0.476330797248331
3.11,0.473776609680532
3.112,0.466696386229722
3.114,0.456851798849818
3.116,0.446852683587492
3.118,0.438465144681071
3.12,0.430262832081071
3.122,0.420186948392964
3.124,0.406188300061468
3.126,0.38705632404176
3.128,0.36493497933088
3.13,0.342806855436331
3.132,0.322538469103962
3.134,0.30164389336464
3.136,0.276650635924202
3.138,0.245887964801179
3.14,0.214868642458236
3.142,0.189118834403917
3.144,0.167005812087399
3.146,0.145582278077495
3.148,0.125774355795107
3.15,0.108921044798088
3.152,0.093588204163993
3.154,0.0776484078502979
3.156,0.0589742298144807
3.158,0.0364745865487464
3.16,0.0135183766673335
3.162,-0.00512487112138538
3.164,-0.01466906958361
3.166,-0.0103217597828803
3.168,0.0128560663784478
3.17,0.0602263635246491
3.172,0.138272031399071
3.174,0.253958998066894
3.176,0.408704498194964
3.178,0.580913452985867
3.18,0.74591351765103
3.182,0.88941442693303
3.184,0.999421690448101
3.186,1.06392344129021
3.188,1.07090781255331
3.19,1.01178274603012
3.192,0.891635418308346
3.194,0.718981017191146
3.196,0.502523388366059
3.198,0.260442464272093
3.2,0.0480760953333866
3.202,-0.085194302038283
3.204,-0.150962762948985
3.206,-0.176067185384249
3.208,-0.189
3.21,-0.207222774035877
3.212,-0.232332244580807
3.214,-0.257996557042236
3.216,-0.277883856827612
3.218,-0.285662289344385
3.22,-0.275
3.222,-0.243436904532212
3.224,-0.204
3.226,-0.169825574630218
3.228,-0.139
3.23,-0.107510796946915
3.232,-0.078
3.234,-0.0537956915439227
3.236,-0.0343156316944211
3.238,-0.018
3.24,-0.00368003270056166
3.242,0.00824880719840165
3.244,0.0170000000000001
3.246,0.0220597302817335
3.248,0.024004999718662
3.25,0.0236855142602354
3.252,0.0219509798559031
3.254,0.0196511024551151
3.256,0.0176355880073211
3.258,0.0167297140094783
3.26,0.0171969035512132
3.262,0.0187387253148218
3.264,0.0210323195301075
3.266,0.0237548264268736
3.268,0.0265833862349236
3.27,0.0291951391840608
3.272,0.0312672255040886
3.274,0.0324905874761291
3.276,0.0328736145616375
3.278,0.0327421434024014
3.28,0.0324358126915276
3.282,0.0322942611221227
3.284,0.0326571273872933
3.286,0.033864050180146
3.288,0.0362546681937876
3.29,0.0401436841055604
3.292,0.0452722722302258
3.294,0.0508080785199653
3.296,0.0558938129111955
3.298,0.0596998208139116
3.3,0.0620320635304039
3.302,0.0633321182552582
3.304,0.0569845905389147
3.306,0.055953836506643
3.308,0.0559605716812762
3.31,0.0575443672293891
3.312,0.0612447943175568
3.314,0.0675767234576482
3.316,0.0764869101032928
3.318,0.087353994649881
3.32,0.0995319168380971
3.322,0.112374616408625
3.324,0.12526014308808
3.326,0.13812107627947
3.328,0.151444525062197
3.33,0.165507206154943
3.332,0.179647826889786
3.334,0.192961074483104
3.336,0.204663808176107
3.338,0.215118301373506
3.34,0.225018390423863
3.342,0.235069210612978
3.344,0.24623577278326
3.346,0.259538162260224
3.348,0.275188559012661
3.35,0.293108674172471
3.352,0.31124986031353
3.354,0.325724227237612
3.356,0.335591556229798
3.358,0.343333843567487
3.36,0.351970753229892
3.362,0.363615848136974
3.364,0.376687582290684
3.366,0.388680632463465
3.368,0.398055465144894
3.37,0.406730399819151
3.372,0.417120244149337
3.374,0.43046166918139
3.376,0.443364127045001
3.378,0.451599750868719
3.38,0.453928941774421
3.382,0.452892280079264
3.384,0.455137066708928
3.386,0.464283936328255
3.388,0.474665841340626
3.39,0.480221827490518
3.392,0.481186999717647
3.394,0.479278568321373
3.396,0.476213743601057
3.398,0.473730692001172
3.4,0.473384460808773
3.402,0.474551646668507
3.404,0.475964691875138
3.406,0.476330797248331
3.408,0.473776609680532
3.41,0.466696386229722
3.412,0.456851798849818
3.414,0.446852683587492
3.416,0.438465144681071
3.418,0.430262832081071
3.42,0.420186948392964
3.422,0.406188300061468
3.424,0.38705632404176
3.426,0.36493497933088
3.428,0.342806855436331
3.43,0.322538469103962
3.432,0.30164389336464
3.434,0.276650635924202
3.436,0.245887964801179
3.438,0.214868642458236
3.44,0.189118834403917
3.442,0.167005812087399
3.444,0.145582278077495
3.446,0.125774355795107
3.448,0.108921044798088
3.45,0.093588204163993
3.452,0.0776484078502979
3.454,0.0589742298144807
3.456,0.0364745865487464
3.458,0.0135183766673335
3.46,-0.00512487112138538
3.462,-0.01466906958361
3.464,-0.0103217597828803
3.466,0.0128560663784478
3.468,0.0602263635246491
3.47,0.138272031399071
3.472,0.253958998066894
3.474,0.408704498194964
3.476,0.580913452985867
3.478,0.74591351765103
3.48,0.88941442693303
3.482,0.999421690448101
3.484,1.06392344129021
3.486,1.07090781255331
3.488,1.01178274603012
3.49,0.891635418308346
3.492,0.718981017191146
3.494,0.502523388366059
3.496,0.260442464272093
3.498,0.0480760953333866
3.5,-0.085194302038283
3.502,-0.150962762948985
3.504,-0.176067185384249
3.506,-0.189
3.508,-0.207222774035877
3.51,-0.232332244580807
3.512,-0.257996557042236
3.514,-0.277883856827612
3.516,-0.285662289344385
3.518,-0.275
3.52,-0.243436904532212
3.522,-0.204
3.524,-0.169825574630218
3.526,-0.139
3.528,-0.107510796946915
3.53,-0.078
3.532,-0.0537956915439227
3.534,-0.0343156316944211
3.536,-0.018
3.538,-0.00368003270056166
3.54,0.00824880719840165
3.542,0.0170000000000001
3.544,0.0220597302817335
3.546,0.024004999718662
3.548,0.0236855142602354
3.55,0.0219509798559031
3.552,0.0196511024551151
3.554,0.0176355880073211
3.556,0.0167297140094783
3.558,0.0171969035512132
3.56,0.0187387253148218
3.562,0.0210323195301075
3.564,0.0237548264268736
3.566,0.0265833862349236
3.568,0.0291951391840608
3.57,0.0312672255040886
3.572,0.0324905874761291
3.574,0.0328736145616375
3.576,0.0327421434024014
3.578,0.0324358126915276
3.58,0.0322942611221227
3.582,0.0326571273872933
3.584,0.033864050180146
3.586,0.0362546681937876
3.588,0.0401436841055604
3.59,0.0452722722302258
3.592,0.0508080785199653
3.594,0.0558938129111955
3.596,0.0596998208139116
3.598,0.0620320635304039
3.6,0.0633321182552582
3.602,0.0569845905389147
3.604,0.055953836506643
3.606,0.0559605716812762
3.608,0.0575443672293891
3.61,0.0612447943175568
3.612,0.0675767234576482
3.614,0.0764869101032928
3.616,0.087353994649881
3.618,0.0995319168380971
3.62,0.112374616408625
3.622,0.12526014308808
3.624,0.13812107627947
3.626,0.151444525062197
3.628,0.165507206154943
3.63,0.179647826889786
3.632,0.192961074483104
3.634,0.204663808176107
3.636,0.215118301373506
3.638,0.225018390423863
3.64,0.235069210612978
3.642,0.24623577278326
3.644,0.259538162260224
3.646,0.275188559012661
3.648,0.293108674172471
3.65,0.31124986031353
3.652,0.325724227237612
3.654,0.335591556229798
3.656,0.343333843567487
3.658,0.351970753229892
3.66,0.363615848136974
3.662,0.376687582290684
3.664,0.388680632463465
3.666,0.398055465144894
3.668,0.406730399819151
3.67,0.417120244149337
3.672,0.43046166918139
3.674,0.443364127045001
3.676,0.451599750868719
3.678,0.453928941774421
3.68,0.452892280079264
3.682,0.455137066708928
3.684,0.464283936328255
3.686,0.474665841340626
3.688,0.480221827490518
3.69,0.481186999717647
3.692,0.479278568321373
3.694,0.476213743601057
3.696,0.473730692001172
3.698,0.473384460808773
3.7,0.474551646668507
3.702,0.475964691875138
3.704,0.476330797248331
3.706,0.473776609680532
3.708,0.466696386229722
3.71,0.456851798849818
3.712,0.446852683587492
3.714,0.438465144681071
3.716,0.430262832081071
3.718,0.420186948392964
3.72,0.406188300061468
3.722,0.38705632404176
3.724,0.36493497933088
3.726,0.342806855436331
3.728,0.322538469103962
3.73,0.30164389336464
3.732,0.276650635924202
3.734,0.245887964801179
3.736,0.214868642458236
3.738,0.189118834403917
3.74,0.167005812087399
3.742,0.145582278077495
3.744,0.125774355795107
3.746,0.108921044798088
3.748,0.093588204163993
3.75,0.0776484078502979
3.752,0.0589742298144807
3.754,0.0364745865487464
3.756,0.0135183766673335
3.758,-0.00512487112138538
3.76,-0.01466906958361
3.762,-0.0103217597828803
3.764,0.0128560663784478
3.766,0.0602263635246491
3.768,0.138272031399071
3.77,0.253958998066894
3.772,0.408704498194964
3.774,0.580913452985867
3.776,0.74591351765103
3.778,0.88941442693303
3.78,0.999421690448101
3.782,1.06392344129021
3.784,1.07090781255331
3.786,1.01178274603012
3.788,0.891635418308346
3.79,0.718981017191146
3.792,0.502523388366059
3.794,0.260442464272093
3.796,0.0480760953333866
3.798,-0.085194302038283
3.8,-0.150962762948985
3.802,-0.176067185384249
3.804,-0.189
3.806,-0.207222774035877
3.808,-0.232332244580807
3.81,-0.257996557042236
3.812,-0.277883856827612
3.814,-0.285662289344385
3.816,-0.275
3.818,-0.243436904532212
3.82,-0.204
3.822,-0.169825574630218
3.824,-0.139
3.826,-0.107510796946915
3.828,-0.078
3.83,-0.0537956915439227
3.832,-0.0343156316944211
3.834,-0.018
3.836,-0.00368003270056166
3.838,0.00824880719840165
3.84,0.0170000000000001
3.842,0.0220597302817335
3.844,0.024004999718662
3.846,0.0236855142602354
3.848,0.0219509798559031
3.85,0.0196511024551151
3.852,0.0176355880073211
3.854,0.0167297140094783
3.856,0.0171969035512132
3.858,0.0187387253148218
3.86,0.0210323195301075
3.862,0.0237548264268736
3.864,0.0265833862349236
3.866,0.0291951391840608
3.868,0.0312672255040886
3.87,0.0324905874761291
3.872,0.0328736145616375
3.874,0.0327421434024014
3.876,0.0324358126915276
3.878,0.0322942611221227
3.88,0.0326571273872933
3.882,0.033864050180146
3.884,0.0362546681937876
3.886,0.0401436841055604
3.888,0.0452722722302258
3.89,0.0508080785199653
3.892,0.0558938129111955
3.894,0.0596998208139116
3.896,0.0620320635304039
3.898,0.0633321182552582
3.9,0.0640691976566383
3.902,0.0576279072849845
3.904,0.0569726032655665
3.906,0.0578240011212171
3.908,0.0607216720185113
3.91,0.0661804864693182
3.912,0.0741471999272673
3.914,0.0840004527877488
3.916,0.095094184791447
3.918,0.106782335679046
3.92,0.118442955177161
3.922,0.1300086226888
3.924,0.141966447293365
3.926,0.154827648056189
3.928,0.168868941695954
3.93,0.18341951777569
3.932,0.197355154823714
3.934,0.209673803393169
3.936,0.220728219119721
3.938,0.231223537289174
3.94,0.242124768743935
3.942,0.254656799883013
3.944,0.269851014969169
3.946,0.287833926207799
3.948,0.306556886172777
3.95,0.322132004665879
3.952,0.333601386801929
3.954,0.343040476942448
3.956,0.353062387150768
3.958,0.365763004176596
3.96,0.379560782021882
3.962,0.391950397459071
3.964,0.401413648865838
3.966,0.410359489152676
3.968,0.421693359408996
3.97,0.436673262568837
3.972,0.45190865076189
3.974,0.463081640007142
3.976,0.466882237906578
3.978,0.46388087150636
3.98,0.462940350347325
3.982,0.469986834819032
3.984,0.47943416821815
3.986,0.484776361110047
3.988,0.485803483255331
3.99,0.484213395597749
3.992,0.481723308436662
3.994,0.480050432071431
3.996,0.480267822451533
3.998,0.481270084884035
4,0.481768705518589
4.002,0.480496126649957
4.004,0.476159549097806
4.006,0.467733783847339
4.008,0.457005744327567
4.01,0.446585266585165
4.012,0.438228851019217
4.014,0.430289259277693
4.016,0.420486805663519
4.018,0.406762692782169
4.02,0.387906357588824
4.022,0.366061759080521
4.024,0.344211486764763
4.026,0.324216170685737
4.028,0.303454489736023
4.03,0.278318557483172
4.032,0.247131755244052
4.034,0.215406845481328
4.036,0.188669993703542
4.038,0.165317483158611
4.04,0.143069287786326
4.042,0.123518802378567
4.044,0.108034038291927
4.046,0.095180854603958
4.048,0.0828318252721378
4.05,0.0688595242539441
4.052,0.0511530840322817
4.054,0.0290022671841897
4.056,0.00615681840874038
4.058,-0.0125971750602659
4.06,-0.022467254286369
4.062,-0.0185144111719249
4.064,0.00434691154189415
4.066,0.0514940241366481
4.068,0.129616457312071
4.07,0.245886770089731
4.072,0.401731181091099
4.074,0.575537234996491
4.076,0.742232927005157
4.078,0.887128331847497
4.08,0.998211582617477
4.082,1.06347081240906
4.084,1.07089415431621
4.086,1.01188955013163
4.088,0.891552378959746
4.09,0.718586486488091
4.092,0.501884376288571
4.094,0.259634183316909
4.096,0.0471737579972412
4.098,-0.086115483258654
4.1,-0.151827575556846
4.102,-0.178454949553258
4.104,-0.189
4.106,-0.207222774035877
4.108,-0.232332244580807
4.11,-0.257996557042236
4.112,-0.277883856827612
4.114,-0.285662289344385
4.116,-0.275
4.118,-0.243436904532212
4.12,-0.204
4.122,-0.169825574630218
4.124,-0.139
4.126,-0.107510796946915
4.128,-0.078
4.13,-0.0537956915439227
4.132,-0.0343156316944211
4.134,-0.018
4.136,-0.00368003270056166
4.138,0.00824880719840165
4.14,0.0170000000000001
4.142,0.0220597302817335
4.144,0.024004999718662
4.146,0.0236855142602354
4.148,0.0219509798559031
4.15,0.0196511024551151
4.152,0.0176355880073211
4.154,0.0167297140094783
4.156,0.0171969035512132
4.158,0.0187387253148218
4.16,0.0210323195301075
4.162,0.0237548264268736
4.164,0.0265833862349236
4.166,0.0291951391840608
4.168,0.0312672255040886
4.17,0.0324905874761291
4.172,0.0328736145616375
4.174,0.0327421434024014
4.176,0.0324358126915276
4.178,0.0322942611221227
4.18,0.0326571273872933
4.182,0.033864050180146
4.184,0.0362546681937876
4.186,0.0401436841055604
4.188,0.0452722722302258
4.19,0.0508080785199653
4.192,0.0558938129111955
4.194,0.0596998208139116
4.196,0.0620320635304039
4.198,0.0633321182552582
4.2,0.0640691976566383
4.202,0.0576279072849845
4.204,0.0569726032655665
4.206,0.0578240011212171
4.208,0.0607216720185113
4.21,0.0661804864693182
4.212,0.0741471999272673
4.214,0.0840004527877488
4.216,0.095094184791447
4.218,0.106782335679046
4.22,0.118442955177161
4.222,0.1300086226888
4.224,0.141966447293365
4.226,0.154827648056189
4.228,0.168868941695954
4.23,0.18341951777569
4.232,0.197355154823714
4.234,0.209673803393169
4.236,0.220728219119721
4.238,0.231223537289174
4.24,0.242124768743935
4.242,0.254656799883013
4.244,0.269851014969169
4.246,0.287833926207799
4.248,0.306556886172777
4.25,0.322132004665879
4.252,0.333601386801929
4.254,0.343040476942448
4.256,0.353062387150768
4.258,0.365763004176596
4.26,0.379560782021882
4.262,0.391950397459071
4.264,0.401413648865838
4.266,0.410359489152676
4.268,0.421693359408996
4.27,0.436673262568837
4.272,0.45190865076189
4.274,0.463081640007142
4.276,0.466882237906578
4.278,0.46388087150636
4.28,0.462940350347325
4.282,0.469986834819032
4.284,0.47943416821815
4.286,0.484776361110047
4.288,0.485803483255331
4.29,0.484213395597749
4.292,0.481723308436662
4.294,0.480050432071431
4.296,0.480267822451533
4.298,0.481270084884035
4.3,0.481768705518589
4.302,0.480496126649957
4.304,0.476159549097806
4.306,0.467733783847339
4.308,0.457005744327567
4.31,0.446585266585165
4.312,0.438228851019217
4.314,0.430289259277693
4.316,0.420486805663519
4.318,0.406762692782169
4.32,0.387906357588824
4.322,0.366061759080521
4.324,0.344211486764763
4.326,0.324216170685737
4.328,0.303454489736023
4.33,0.278318557483172
4.332,0.247131755244052
4.334,0.215406845481328
4.336,0.188669993703542
4.338,0.165317483158611
4.34,0.143069287786326
4.342,0.123518802378567
4.344,0.108034038291927
4.346,0.095180854603958
4.348,0.0828318252721378
4.35,0.0688595242539441
4.352,0.0511530840322817
4.354,0.0290022671841897
4.356,0.00615681840874038
4.358,-0.0125971750602659
4.36,-0.022467254286369
4.362,-0.0185144111719249
4.364,0.00434691154189415
4.366,0.0514940241366481
4.368,0.129616457312071
4.37,0.245886770089731
4.372,0.401731181091099
4.374,0.575537234996491
4.376,0.742232927005157
4.378,0.887128331847497
4.38,0.998211582617477
4.382,1.06347081240906
4.384,1.07089415431621
4.386,1.01188955013163
4.388,0.891552378959746
4.39,0.718586486488091
4.392,0.501884376288571
4.394,0.259634183316909
4.396,0.0471737579972412
4.398,-0.086115483258654
4.4,-0.151827575556846
4.402,-0.178454949553258
4.404,-0.189
4.406,-0.207222774035877
4.408,-0.232332244580807
4.41,-0.257996557042236
4.412,-0.277883856827612
4.414,-0.285662289344385
4.416,-0.275
4.418,-0.243436904532212
4.42,-0.204
4.422,-0.169825574630218
4.424,-0.139
4.426,-0.107510796946915
4.428,-0.078
4.43,-0.0537956915439227
4.432,-0.0343156316944211
4.434,-0.018
4.436,-0.00368003270056166
4.438,0.00824880719840165
4.44,0.0170000000000001
4.442,0.0220597302817335
4.444,0.024004999718662
4.446,0.0236855142602354
4.448,0.0219509798559031
4.45,0.0196511024551151
4.452,0.0176355880073211
4.454,0.0167297140094783
4.456,0.0171969035512132
4.458,0.0187387253148218
4.46,0.0210323195301075
4.462,0.0237548264268736
4.464,0.0265833862349236
4.466,0.0291951391840608
4.468,0.0312672255040886
4.47,0.0324905874761291
4.472,0.0328736145616375
4.474,0.0327421434024014
4.476,0.0324358126915276
4.478,0.0322942611221227
4.48,0.0326571273872933
4.482,0.033864050180146
4.484,0.0362546681937876
4.486,0.0401436841055604
4.488,0.0452722722302258
4.49,0.0508080785199653
4.492,0.0558938129111955
4.494,0.0596998208139116
4.496,0.0620320635304039
4.498,0.0633321182552582
4.5,0.0640691976566383
4.502,0.0576279072849845
4.504,0.0569726032655665
4.506,0.0578240011212171
4.508,0.0607216720185113
4.51,0.0661804864693182
4.512,0.0741471999272673
4.514,0.0840004527877488
4.516,0.095094184791447
4.518,0.106782335679046
4.52,0.118442955177161
4.522,0.1300086226888
4.524,0.141966447293365
4.526,0.154827648056189
4.528,0.168868941695954
4.53,0.18341951777569
4.532,0.197355154823714
4.534,0.209673803393169
4.536,0.220728219119721
4.538,0.231223537289174
4.54,0.242124768743935
4.542,0.254656799883013
4.544,0.269851014969169
4.546,0.287833926207799
4.548,0.306556886172777
4.55,0.322132004665879
4.552,0.333601386801929
4.554,0.343040476942448
4.556,0.353062387150768
4.558,0.365763004176596
4.56,0.379560782021882
4.562,0.391950397459071
4.564,0.401413648865838
4.566,0.410359489152676
4.568,0.421693359408996
4.57,0.436673262568837
4.572,0.45190865076189
4.574,0.463081640007142
4.576,0.466882237906578
4.578,0.46388087150636
4.58,0.462940350347325
4.582,0.469986834819032
4.584,0.47943416821815
4.586,0.484776361110047
4.588,0.485803483255331
4.59,0.484213395597749
4.592,0.481723308436662
4.594,0.480050432071431
4.596,0.480267822451533
4.598,0.481270084884035
4.6,0.481768705518589
4.602,0.480496126649957
4.604,0.476159549097806
4.606,0.467733783847339
4.608,0.457005744327567
4.61,0.446585266585165
4.612,0.438228851019217
4.614,0.430289259277693
4.616,0.420486805663519
4.618,0.406762692782169
4.62,0.387906357588824
4.622,0.366061759080521
4.624,0.344211486764763
4.626,0.324216170685737
4.628,0.303454489736023
4.63,0.278318557483172
4.632,0.247131755244052
4.634,0.215406845481328
4.636,0.188669993703542
4.638,0.165317483158611
4.64,0.143069287786326
4.642,0.123518802378567
4.644,0.108034038291927
4.646,0.095180854603958
4.648,0.0828318252721378
4.65,0.0688595242539441
4.652,0.0511530840322817
4.654,0.0290022671841897
4.656,0.00615681840874038
4.658,-0.0125971750602659
4.66,-0.022467254286369
4.662,-0.0185144111719249
4.664,0.00434691154189415
4.666,0.0514940241366481
4.668,0.129616457312071
4.67,0.245886770089731
4.672,0.401731181091099
4.674,0.575537234996491
4.676,0.742232927005157
4.678,0.887128331847497
4.68,0.998211582617477
4.682,1.06347081240906
4.684,1.07089415431621
4.686,1.01188955013163
4.688,0.891552378959746
4.69,0.718586486488091
4.692,0.501884376288571
4.694,0.259634183316909
4.696,0.0471737579972412
4.698,-0.086115483258654
4.7,-0.151827575556846
4.702,-0.178454949553258
4.704,-0.189
4.706,-0.207222774035877
4.708,-0.232332244580807
4.71,-0.257996557042236
4.712,-0.277883856827612
4.714,-0.285662289344385
4.716,-0.275
4.718,-0.243436904532212
4.72,-0.204
4.722,-0.169825574630218
4.724,-0.139
4.726,-0.107510796946915
4.728,-0.078
4.73,-0.0537956915439227
4.732,-0.0343156316944211
4.734,-0.018
4.736,-0.00368003270056166
4.738,0.00824880719840165
4.74,0.0170000000000001
4.742,0.0220597302817335
4.744,0.024004999718662
4.746,0.0236855142602354
4.748,0.0219509798559031
4.75,0.0196511024551151
4.752,0.0176355880073211
4.754,0.0167297140094783
4.756,0.0171969035512132
4.758,0.0187387253148218
4.76,0.0210323195301075
4.762,0.0237548264268736
4.764,0.0265833862349236
4.766,0.0291951391840608
4.768,0.0312672255040886
4.77,0.0324905874761291
4.772,0.0328736145616375
4.774,0.0327421434024014
4.776,0.0324358126915276
4.778,0.0322942611221227
4.78,0.0326571273872933
4.782,0.033864050180146
4.784,0.0362546681937876
4.786,0.0401436841055604
4.788,0.0452722722302258
4.79,0.0508080785199653
4.792,0.0558938129111955
4.794,0.0596998208139116
4.796,0.0620320635304039
4.798,0.0633321182552582
4.8,0.0640691976566383
4.802,0.0576279072849845
4.804,0.0569726032655665
4.806,0.0578240011212171
4.808,0.0607216720185113
4.81,0.0661804864693182
4.812,0.0741471999272673
4.814,0.0840004527877488
4.816,0.095094184791447
4.818,0.106782335679046
4.82,0.118442955177161
4.822,0.1300086226888
4.824,0.141966447293365
4.826,0.154827648056189
4.828,0.168868941695954
4.83,0.18341951777569
4.832,0.197355154823714
4.834,0.209673803393169
4.836,0.220728219119721
4.838,0.231223537289174
4.84,0.242124768743935
4.842,0.254656799883013
4.844,0.269851014969169
4.846,0.287833926207799
4.848,0.306556886172777
4.85,0.322132004665879
4.852,0.333601386801929
4.854,0.343040476942448
4.856,0.353062387150768
4.858,0.365763004176596
4.86,0.379560782021882
4.862,0.391950397459071
4.864,0.401413648865838
4.866,0.410359489152676
4.868,0.421693359408996
4.87,0.436673262568837
4.872,0.45190865076189
4.874,0.463081640007142
4.876,0.466882237906578
4.878,0.46388087150636
4.88,0.462940350347325
4.882,0.469986834819032
4.884,0.47943416821815
4.886,0.484776361110047
4.888,0.485803483255331
4.89,0.484213395597749
4.892,0.481723308436662
4.894,0.480050432071431
4.896,0.480267822451533
4.898,0.481270084884035
4.9,0.481768705518589
4.902,0.480496126649957
4.904,0.476159549097806
4.906,0.467733783847339
4.908,0.457005744327567
4.91,0.446585266585165
4.912,0.438228851019217
4.914,0.430289259277693
4.916,0.420486805663519
4.918,0.406762692782169
4.92,0.387906357588824
4.922,0.366061759080521
4.924,0.344211486764763
4.926,0.324216170685737
4.928,0.303454489736023
4.93,0.278318557483172
4.932,0.247131755244052
4.934,0.215406845481328
4.936,0.188669993703542
4.938,0.165317483158611
4.94,0.143069287786326
4.942,0.123518802378567
4.944,0.108034038291927
4.946,0.095180854603958
4.948,0.0828318252721378
4.95,0.0688595242539441
4.952,0.0511530840322817
4.954,0.0290022671841897
4.956,0.00615681840874038
4.958,-0.0125971750602659
4.96,-0.022467254286369
4.962,-0.0185144111719249
4.964,0.00434691154189415
4.966,0.0514940241366481
4.968,0.129616457312071
4.97,0.245886770089731
4.972,0.401731181091099
4.974,0.575537234996491
4.976,0.742232927005157
4.978,0.887128331847497
4.98,0.998211582617477
4.982,1.06347081240906
4.984,1.07089415431621
4.986,1.01188955013163
4.988,0.891552378959746
4.99,0.718586486488091
4.992,0.501884376288571
4.994,0.259634183316909
4.996,0.0471737579972412
4.998,-0.086115483258654
5,-0.151827575556846
5.002,-0.178454949553258
5.004,-0.189
5.006,-0.207222774035877
5.008,-0.232332244580807
5.01,-0.257996557042236
5.012,-0.277883856827612
5.014,-0.285662289344385
5.016,-0.275
5.018,-0.243436904532212
5.02,-0.204
5.022,-0.169825574630218
5.024,-0.139
5.026,-0.107510796946915
5.028,-0.078
5.03,-0.0537956915439227
5.032,-0.0343156316944211
5.034,-0.018
5.036,-0.00368003270056166
5.038,0.00824880719840165
5.04,0.0170000000000001
5.042,0.0220597302817335
5.044,0.024004999718662
5.046,0.0236855142602354
5.048,0.0219509798559031
5.05,0.0196511024551151
5.052,0.0176355880073211
5.054,0.0167297140094783
5.056,0.0171969035512132
5.058,0.0187387253148218
5.06,0.0210323195301075
5.062,0.0237548264268736
5.064,0.0265833862349236
5.066,0.0291951391840608
5.068,0.0312672255040886
5.07,0.0324905874761291
5.072,0.0328736145616375
5.074,0.0327421434024014
5.076,0.0324358126915276
5.078,0.0322942611221227
5.08,0.0326571273872933
5.082,0.033864050180146
5.084,0.0362546681937876
5.086,0.0401436841055604
5.088,0.0452722722302258
5.09,0.0508080785199653
5.092,0.0558938129111955
5.094,0.0596998208139116
5.096,0.0620320635304039
5.098,0.0633321182552582
5.1,0.0640691976566383
5.102,0.0576279072849845
5.104,0.0569726032655665
5.106,0.0578240011212171
5.108,0.0607216720185113
5.11,0.0661804864693182
5.112,0.0741471999272673
5.114,0.0840004527877488
5.116,0.095094184791447
5.118,0.106782335679046
5.12,0.118442955177161
5.122,0.1300086226888
5.124,0.141966447293365
5.126,0.154827648056189
5.128,0.168868941695954
5.13,0.18341951777569
5.132,0.197355154823714
5.134,0.209673803393169
5.136,0.220728219119721
5.138,0.231223537289174
5.14,0.242124768743935
5.142,0.254656799883013
5.144,0.269851014969169
5.146,0.287833926207799
5.148,0.306556886172777
5.15,0.322132004665879
5.152,0.333601386801929
5.154,0.343040476942448
5.156,0.353062387150768
5.158,0.365763004176596
5.16,0.379560782021882
5.162,0.391950397459071
5.164,0.401413648865838
5.166,0.410359489152676
5.168,0.421693359408996
5.17,0.436673262568837
5.172,0.45190865076189
5.174,0.463081640007142
5.176,0.466882237906578
5.178,0.46388087150636
5.18,0.462940350347325
5.182,0.469986834819032
5.184,0.47943416821815
5.186,0.484776361110047
5.188,0.485803483255331
5.19,0.484213395597749
5.192,0.481723308436662
5.194,0.480050432071431
5.196,0.480267822451533
5.198,0.481270084884035
5.2,0.481768705518589
5.202,0.480496126649957
5.204,0.476159549097806
5.206,0.467733783847339
5.208,0.457005744327567
5.21,0.446585266585165
5.212,0.438228851019217
5.214,0.430289259277693
5.216,0.420486805663519
5.218,0.406762692782169
5.22,0.387906357588824
5.222,0.366061759080521
5.224,0.344211486764763
5.226,0.324216170685737
5.228,0.303454489736023
5.23,0.278318557483172
5.232,0.247131755244052
5.234,0.215406845481328
5.236,0.188669993703542
5.238,0.165317483158611
5.24,0.143069287786326
5.242,0.123518802378567
5.244,0.108034038291927
5.246,0.095180854603958
5.248,0.0828318252721378
5.25,0.0688595242539441
5.252,0.0511530840322817
5.254,0.0290022671841897
5.256,0.00615681840874038
5.258,-0.0125971750602659
5.26,-0.022467254286369
5.262,-0.0185144111719249
5.264,0.00434691154189415
5.266,0.0514940241366481
5.268,0.129616457312071
5.27,0.245886770089731
5.272,0.401731181091099
5.274,0.575537234996491
5.276,0.742232927005157
5.278,0.887128331847497
5.28,0.998211582617477
5.282,1.06347081240906
5.284,1.07089415431621
5.286,1.01188955013163
5.288,0.891552378959746
5.29,0.718586486488091
5.292,0.501884376288571
5.294,0.259634183316909
5.296,0.0471737579972412
5.298,-0.086115483258654
5.3,-0.151827575556846
5.302,-0.178454949553258
5.304,-0.189
5.306,-0.207222774035877
5.308,-0.232332244580807
5.31,-0.257996557042236
5.312,-0.277883856827612
5.314,-0.285662289344385
5.316,-0.275
5.318,-0.243436904532212
5.32,-0.204
5.322,-0.169825574630218
5.324,-0.139
5.326,-0.107510796946915
5.328,-0.078
5.33,-0.0537956915439227
5.332,-0.0343156316944211
5.334,-0.018
5.336,-0.00368003270056166
5.338,0.00824880719840165
5.34,0.0170000000000001
5.342,0.0220597302817335
5.344,0.024004999718662
5.346,0.0236855142602354
5.348,0.0219509798559031
5.35,0.0196511024551151
5.352,0.0176355880073211
5.354,0.0167297140094783
5.356,0.0171969035512132
5.358,0.0187387253148218
5.36,0.0210323195301075
5.362,0.0237548264268736
5.364,0.0265833862349236
5.366,0.0291951391840608
5.368,0.0312672255040886
5.37,0.0324905874761291
5.372,0.0328736145616375
5.374,0.0327421434024014
5.376,0.0324358126915276
5.378,0.0322942611221227
5.38,0.0326571273872933
5.382,0.033864050180146
5.384,0.0362546681937876
5.386,0.0401436841055604
5.388,0.0452722722302258
5.39,0.0508080785199653
5.392,0.0558938129111955
5.394,0.0596998208139116
5.396,0.0620320635304039
5.398,0.0633321182552582
5.4,0.0640691976566383
5.402,0.0576279072849845
5.404,0.0569726032655665
5.406,0.0578240011212171
5.408,0.0607216720185113
5.41,0.0661804864693182
5.412,0.0741471999272673
5.414,0.0840004527877488
5.416,0.095094184791447
5.418,0.106782335679046
5.42,0.118442955177161
5.422,0.1300086226888
5.424,0.141966447293365
5.426,0.154827648056189
5.428,0.168868941695954
5.43,0.18341951777569
5.432,0.197355154823714
5.434,0.209673803393169
5.436,0.220728219119721
5.438,0.231223537289174
5.44,0.242124768743935
5.442,0.254656799883013
5.444,0.269851014969169
5.446,0.287833926207799
5.448,0.306556886172777
5.45,0.322132004665879
5.452,0.333601386801929
5.454,0.343040476942448
5.456,0.353062387150768
5.458,0.365763004176596
5.46,0.379560782021882
5.462,0.391950397459071
5.464,0.401413648865838
5.466,0.410359489152676
5.468,0.421693359408996
5.47,0.436673262568837
5.472,0.45190865076189
5.474,0.463081640007142
5.476,0.466882237906578
5.478,0.46388087150636
5.48,0.462940350347325
5.482,0.469986834819032
5.484,0.47943416821815
5.486,0.484776361110047
5.488,0.485803483255331
5.49,0.484213395597749
5.492,0.481723308436662
5.494,0.480050432071431
5.496,0.480267822451533
5.498,0.481270084884035
5.5,0.481768705518589
5.502,0.480496126649957
5.504,0.476159549097806
5.506,0.467733783847339
5.508,0.457005744327567
5.51,0.446585266585165
5.512,0.438228851019217
5.514,0.430289259277693
5.516,0.420486805663519
5.518,0.406762692782169
5.52,0.387906357588824
5.522,0.366061759080521
5.524,0.344211486764763
5.526,0.324216170685737
5.528,0.303454489736023
5.53,0.278318557483172
5.532,0.247131755244052
5.534,0.215406845481328
5.536,0.188669993703542
5.538,0.165317483158611
5.54,0.143069287786326
5.542,0.123518802378567
5.544,0.108034038291927
5.546,0.095180854603958
5.548,0.0828318252721378
5.55,0.0688595242539441
5.552,0.0511530840322817
5.554,0.0290022671841897
5.556,0.00615681840874038
5.558,-0.0125971750602659
5.56,-0.022467254286369
5.562,-0.0185144111719249
5.564,0.00434691154189415
5.566,0.0514940241366481
5.568,0.129616457312071
5.57,0.245886770089731
5.572,0.401731181091099
5.574,0.575537234996491
5.576,0.742232927005157
5.578,0.887128331847497
5.58,0.998211582617477
5.582,1.06347081240906
5.584,1.07089415431621
5.586,1.01188955013163
5.588,0.891552378959746
5.59,0.718586486488091
5.592,0.501884376288571
5.594,0.259634183316909
5.596,0.0471737579972412
5.598,-0.086115483258654
5.6,-0.151827575556846
5.602,-0.178454949553258
5.604,-0.189
5.606,-0.207222774035877
5.608,-0.232332244580807
5.61,-0.257996557042236
5.612,-0.277883856827612
5.614,-0.285662289344385
5.616,-0.275
5.618,-0.243436904532212
5.62,-0.204
5.622,-0.169825574630218
5.624,-0.139
5.626,-0.107510796946915
5.628,-0.078
5.63,-0.0537956915439227
5.632,-0.0343156316944211
5.634,-0.018
5.636,-0.00368003270056166
5.638,0.00824880719840165
5.64,0.0170000000000001
5.642,0.0220597302817335
5.644,0.024004999718662
5.646,0.0236855142602354
5.648,0.0219509798559031
5.65,0.0196511024551151
5.652,0.0176355880073211
5.654,0.0167297140094783
5.656,0.0171969035512132
5.658,0.0187387253148218
5.66,0.0210323195301075
5.662,0.0237548264268736
5.664,0.0265833862349236
5.666,0.0291951391840608
5.668,0.0312672255040886
5.67,0.0324905874761291
5.672,0.0328736145616375
5.674,0.0327421434024014
5.676,0.0324358126915276
5.678,0.0322942611221227
5.68,0.0326571273872933
5.682,0.033864050180146
5.684,0.0362546681937876
5.686,0.0401436841055604
5.688,0.0452722722302258
5.69,0.0508080785199653
5.692,0.0558938129111955
5.694,0.0596998208139116
5.696,0.0620320635304039
5.698,0.0633321182552582
5.7,0.0640691976566383
5.702,0.0576279072849845
5.704,0.0569726032655665
5.706,0.0578240011212171
5.708,0.0607216720185113
5.71,0.0661804864693182
5.712,0.0741471999272673
5.714,0.0840004527877488
5.716,0.095094184791447
5.718,0.106782335679046
5.72,0.118442955177161
5.722,0.1300086226888
5.724,0.141966447293365
5.726,0.154827648056189
5.728,0.168868941695954
5.73,0.18341951777569
5.732,0.197355154823714
5.734,0.209673803393169
5.736,0.220728219119721
5.738,0.231223537289174
5.74,0.242124768743935
5.742,0.254656799883013
5.744,0.269851014969169
5.746,0.287833926207799
5.748,0.306556886172777
5.75,0.322132004665879
5.752,0.333601386801929
5.754,0.343040476942448
5.756,0.353062387150768
5.758,0.365763004176596
5.76,0.379560782021882
5.762,0.391950397459071
5.764,0.401413648865838
5.766,0.410359489152676
5.768,0.421693359408996
5.77,0.436673262568837
5.772,0.45190865076189
5.774,0.463081640007142
5.776,0.466882237906578
5.778,0.46388087150636
5.78,0.462940350347325
5.782,0.469986834819032
5.784,0.47943416821815
5.786,0.484776361110047
5.788,0.485803483255331
5.79,0.484213395597749
5.792,0.481723308436662
5.794,0.480050432071431
5.796,0.480267822451533
5.798,0.481270084884035
5.8,0.481768705518589
5.802,0.480496126649957
5.804,0.476159549097806
5.806,0.467733783847339
5.808,0.457005744327567
5.81,0.446585266585165
5.812,0.438228851019217
5.814,0.430289259277693
5.816,0.420486805663519
5.818,0.406762692782169
5.82,0.387906357588824
5.822,0.366061759080521
5.824,0.344211486764763
5.826,0.324216170685737
5.828,0.303454489736023
5.83,0.278318557483172
5.832,0.247131755244052
5.834,0.215406845481328
5.836,0.188669993703542
5.838,0.165317483158611
5.84,0.143069287786326
5.842,0.123518802378567
5.844,0.108034038291927
5.846,0.095180854603958
5.848,0.0828318252721378
5.85,0.0688595242539441
5.852,0.0511530840322817
5.854,0.0290022671841897
5.856,0.00615681840874038
5.858,-0.0125971750602659
5.86,-0.022467254286369
5.862,-0.0185144111719249
5.864,0.00434691154189415
5.866,0.0514940241366481
5.868,0.129616457312071
5.87,0.245886770089731
5.872,0.401731181091099
5.874,0.575537234996491
5.876,0.742232927005157
5.878,0.887128331847497
5.88,0.998211582617477
5.882,1.06347081240906
5.884,1.07089415431621
5.886,1.01188955013163
5.888,0.891552378959746
5.89,0.718586486488091
5.892,0.501884376288571
5.894,0.259634183316909
5.896,0.0471737579972412
5.898,-0.086115483258654
5.9,-0.151827575556846
5.902,-0.178454949553258
5.904,-0.189
5.906,-0.207222774035877
5.908,-0.232332244580807
5.91,-0.257996557042236
5.912,-0.277883856827612
5.914,-0.285662289344385
5.916,-0.275
5.918,-0.243436904532212
5.92,-0.204
5.922,-0.169825574630218
5.924,-0.139
5.926,-0.107510796946915
5.928,-0.078
5.93,-0.0537956915439227
5.932,-0.0343156316944211
5.934,-0.018
5.936,-0.00368003270056166
5.938,0.00824880719840165
5.94,0.0170000000000001
5.942,0.0220597302817335
5.944,0.024004999718662
5.946,0.0236855142602354
5.948,0.0219509798559031
5.95,0.0196511024551151
5.952,0.0176355880073211
5.954,0.0167297140094783
5.956,0.0171969035512132
5.958,0.0187387253148218
5.96,0.0210323195301075
5.962,0.0237548264268736
5.964,0.0265833862349236
5.966,0.0291951391840608
5.968,0.0312672255040886
5.97,0.0324905874761291
5.972,0.0328736145616375
5.974,0.0327421434024014
5.976,0.0324358126915276
5.978,0.0322942611221227
5.98,0.0326571273872933
5.982,0.033864050180146
5.984,0.0362546681937876
5.986,0.0401436841055604
5.988,0.0452722722302258
5.99,0.0508080785199653
5.992,0.0558938129111955
5.994,0.0596998208139116
5.996,0.0620320635304039
5.998,0.0633321182552582
6,0.0640691976566383
6.002,0.0647125144027081
6.004,0.0586466740439079
6.006,0.0588360327055074
6.008,0.0610013059103393
6.01,0.0656573641702727
6.012,0.0727509629389373
6.014,0.0816607426117232
6.016,0.0917406429293148
6.018,0.102344603632396
6.02,0.112850674447582
6.022,0.123191434777881
6.024,0.133853993702695
6.026,0.145349570287357
6.028,0.158189383597199
6.03,0.172640632581859
6.032,0.1878135981163
6.034,0.202365150040776
6.036,0.215283721139384
6.038,0.226933365985033
6.04,0.238279095420131
6.042,0.250545795843688
6.044,0.264969652591957
6.046,0.282496382164308
6.048,0.301282138208106
6.05,0.317439030525127
6.052,0.330009164230196
6.054,0.341050307514579
6.056,0.352769020525728
6.058,0.366854638097472
6.06,0.381707938061504
6.062,0.39482359719027
6.064,0.404683413861444
6.066,0.41371767287362
6.068,0.425322448742521
6.07,0.441246377828496
6.072,0.458120244149337
6.074,0.47162616372403
6.076,0.478364127045001
6.078,0.476834167638517
6.08,0.473928941774421
6.082,0.47779011845743
6.084,0.485137066708928
6.086,0.489544687987571
6.088,0.49035801687486
6.09,0.488829879135433
6.092,0.486658135713039
6.094,0.485559996907037
6.096,0.486587562521793
6.098,0.488153446526795
6.1,0.488487143734117
6.102,0.486300140293409
6.104,0.480324878499433
6.106,0.470116723264613
6.108,0.458043141945184
6.11,0.446739212062915
6.112,0.437961434016891
6.114,0.430052965615839
6.116,0.420513232860141
6.118,0.407062550052724
6.12,0.388480750309526
6.122,0.366911792627585
6.124,0.345338266514404
6.126,0.32562080201417
6.128,0.305132191317799
6.13,0.280129153854555
6.132,0.248799676803023
6.134,0.216650635924202
6.136,0.189208196726634
6.138,0.164868642458237
6.14,0.141380958857539
6.142,0.121005812087399
6.144,0.105778484875388
6.146,0.0942938480977966
6.148,0.0844244757121028
6.15,0.074042941675784
6.152,0.0610383784717451
6.154,0.0436807646677251
6.156,0.0216407089255966
6.158,-0.00131548553014016
6.16,-0.0203953597630249
6.162,-0.0306599056754137
6.164,-0.0270235660084786
6.166,-0.00438542784610685
6.168,0.0428384500496485
6.17,0.121544229334908
6.172,0.238913452985865
6.174,0.396354963101722
6.176,0.571856644350618
6.178,0.739946831919625
6.18,0.885918224016872
6.182,0.997758953736328
6.184,1.06345715417195
6.186,1.07100095841771
6.188,1.01180651078303
6.19,0.891157848256691
6.192,0.717947474410603
6.194,0.501076095333387
6.196,0.258731845980763
6.198,0.0462525767768702
6.2,-0.0869802958665149
6.202,-0.154215339725855
6.204,-0.178454949553258
6.206,-0.189
6.208,-0.207222774035877
6.21,-0.232332244580807
6.212,-0.257996557042236
6.214,-0.277883856827612
6.216,-0.285662289344385
6.218,-0.275
6.22,-0.243436904532212
6.222,-0.204
6.224,-0.169825574630218
6.226,-0.139
6.228,-0.107510796946915
6.23,-0.078
6.232,-0.0537956915439227
6.234,-0.0343156316944211
6.236,-0.018
6.238,-0.00368003270056166
6.24,0.00824880719840165
6.242,0.0170000000000001
6.244,0.0220597302817335
6.246,0.024004999718662
6.248,0.0236855142602354
6.25,0.0219509798559031
6.252,0.0196511024551151
6.254,0.0176355880073211
6.256,0.0167297140094783
6.258,0.0171969035512132
6.26,0.0187387253148218
6.262,0.0210323195301075
6.264,0.0237548264268736
6.266,0.0265833862349236
6.268,0.0291951391840608
6.27,0.0312672255040886
6.272,0.0324905874761291
6.274,0.0328736145616375
6.276,0.0327421434024014
6.278,0.0324358126915276
6.28,0.0322942611221227
6.282,0.0326571273872933
6.284,0.033864050180146
6.286,0.0362546681937876
6.288,0.0401436841055604
6.29,0.0452722722302258
6.292,0.0508080785199653
6.294,0.0558938129111955
6.296,0.0596998208139116
6.298,0.0620320635304039
6.3,0.0633321182552582
6.302,0.0640691976566383
6.304,0.0647125144027081
6.306,0.0586466740439079
6.308,0.0588360327055074
6.31,0.0610013059103393
6.312,0.0656573641702727
6.314,0.0727509629389373
6.316,0.0816607426117232
6.318,0.0917406429293148
6.32,0.102344603632396
6.322,0.112850674447582
6.324,0.123191434777881
6.326,0.133853993702695
6.328,0.145349570287357
6.33,0.158189383597199
6.332,0.172640632581859
6.334,0.1878135981163
6.336,0.202365150040776
6.338,0.215283721139384
6.34,0.226933365985033
6.342,0.238279095420131
6.344,0.250545795843688
6.346,0.264969652591957
6.348,0.282496382164308
6.35,0.301282138208106
6.352,0.317439030525127
6.354,0.330009164230196
6.356,0.341050307514579
6.358,0.352769020525728
6.36,0.366854638097472
6.362,0.381707938061504
6.364,0.39482359719027
6.366,0.404683413861444
6.368,0.41371767287362
6.37,0.425322448742521
6.372,0.441246377828496
6.374,0.458120244149337
6.376,0.47162616372403
6.378,0.478364127045001
6.38,0.476834167638517
6.382,0.473928941774421
6.384,0.47779011845743
6.386,0.485137066708928
6.388,0.489544687987571
6.39,0.49035801687486
6.392,0.488829879135433
6.394,0.486658135713039
6.396,0.485559996907037
6.398,0.486587562521793
6.4,0.488153446526795
6.402,0.488487143734117
6.404,0.486300140293409
6.406,0.480324878499433
6.408,0.470116723264613
6.41,0.458043141945184
6.412,0.446739212062915
6.414,0.437961434016891
6.416,0.430052965615839
6.418,0.420513232860141
6.42,0.407062550052724
6.422,0.388480750309526
6.424,0.366911792627585
6.426,0.345338266514404
6.428,0.32562080201417
6.43,0.305132191317799
6.432,0.280129153854555
6.434,0.248799676803023
6.436,0.216650635924202
6.438,0.189208196726634
6.44,0.164868642458237
6.442,0.141380958857539
6.444,0.121005812087399
6.446,0.105778484875388
6.448,0.0942938480977966
6.45,0.0844244757121028
6.452,0.074042941675784
6.454,0.0610383784717451
6.456,0.0436807646677251
6.458,0.0216407089255966
6.46,-0.00131548553014016
6.462,-0.0203953597630249
6.464,-0.0306599056754137
6.466,-0.0270235660084786
6.468,-0.00438542784610685
6.47,0.0428384500496485
6.472,0.121544229334908
6.474,0.238913452985865
6.476,0.396354963101722
6.478,0.571856644350618
6.48,0.739946831919625
6.482,0.885918224016872
6.484,0.997758953736328
6.486,1.06345715417195
6.488,1.07100095841771
6.49,1.01180651078303
6.492,0.891157848256691
6.494,0.717947474410603
6.496,0.501076095333387
6.498,0.258731845980763
6.5,0.0462525767768702
6.502,-0.0869802958665149
6.504,-0.154215339725855
6.506,-0.178454949553258
6.508,-0.189
6.51,-0.207222774035877
6.512,-0.232332244580807
6.514,-0.257996557042236
6.516,-0.277883856827612
6.518,-0.285662289344385
6.52,-0.275
6.522,-0.243436904532212
6.524,-0.204
6.526,-0.169825574630218
6.528,-0.139
6.53,-0.107510796946915
6.532,-0.078
6.534,-0.0537956915439227
6.536,-0.0343156316944211
6.538,-0.018
6.54,-0.00368003270056166
6.542,0.00824880719840165
6.544,0.0170000000000001
6.546,0.0220597302817335
6.548,0.024004999718662
6.55,0.0236855142602354
6.552,0.0219509798559031
6.554,0.0196511024551151
6.556,0.0176355880073211
6.558,0.0167297140094783
6.56,0.0171969035512132
6.562,0.0187387253148218
6.564,0.0210323195301075
6.566,0.0237548264268736
6.568,0.0265833862349236
6.57,0.0291951391840608
6.572,0.0312672255040886
6.574,0.0324905874761291
6.576,0.0328736145616375
6.578,0.0327421434024014
6.58,0.0324358126915276
6.582,0.0322942611221227
6.584,0.0326571273872933
6.586,0.033864050180146
6.588,0.0362546681937876
6.59,0.0401436841055604
6.592,0.0452722722302258
6.594,0.0508080785199653
6.596,0.0558938129111955
6.598,0.0596998208139116
6.6,0.0620320635304039
6.602,0.0633321182552582
6.604,0.0640691976566383
6.606,0.0647125144027081
6.608,0.0586466740439079
6.61,0.0588360327055074
6.612,0.0610013059103393
6.614,0.0656573641702727
6.616,0.0727509629389373
6.618,0.0816607426117232
6.62,0.0917406429293148
6.622,0.102344603632396
6.624,0.112850674447582
6.626,0.123191434777881
6.628,0.133853993702695
6.63,0.145349570287357
6.632,0.158189383597199
6.634,0.172640632581859
6.636,0.1878135981163
6.638,0.202365150040776
6.64,0.215283721139384
6.642,0.226933365985033
6.644,0.238279095420131
6.646,0.250545795843688
6.648,0.264969652591957
6.65,0.282496382164308
6.652,0.301282138208106
6.654,0.317439030525127
6.656,0.330009164230196
6.658,0.341050307514579
6.66,0.352769020525728
6.662,0.366854638097472
6.664,0.381707938061504
6.666,0.39482359719027
6.668,0.404683413861444
6.67,0.41371767287362
6.672,0.425322448742521
6.674,0.441246377828496
6.676,0.458120244149337
6.678,0.47162616372403
6.68,0.478364127045001
6.682,0.476834167638517
6.684,0.473928941774421
6.686,0.47779011845743
6.688,0.485137066708928
6.69,0.489544687987571
6.692,0.49035801687486
6.694,0.488829879135433
6.696,0.486658135713039
6.698,0.485559996907037
6.7,0.486587562521793
6.702,0.488153446526795
6.704,0.488487143734117
6.706,0.486300140293409
6.708,0.480324878499433
6.71,0.470116723264613
6.712,0.458043141945184
6.714,0.446739212062915
6.716,0.437961434016891
6.718,0.430052965615839
6.72,0.420513232860141
6.722,0.407062550052724
6.724,0.388480750309526
6.726,0.366911792627585
6.728,0.345338266514404
6.73,0.32562080201417
6.732,0.305132191317799
6.734,0.280129153854555
6.736,0.248799676803023
6.738,0.216650635924202
6.74,0.189208196726634
6.742,0.164868642458237
6.744,0.141380958857539
6.746,0.121005812087399
6.748,0.105778484875388
6.75,0.0942938480977966
6.752,0.0844244757121028
6.754,0.074042941675784
6.756,0.0610383784717451
6.758,0.0436807646677251
6.76,0.0216407089255966
6.762,-0.00131548553014016
6.764,-0.0203953597630249
6.766,-0.0306599056754137
6.768,-0.0270235660084786
6.77,-0.00438542784610685
6.772,0.0428384500496485
6.774,0.121544229334908
6.776,0.238913452985865
6.778,0.396354963101722
6.78,0.571856644350618
6.782,0.739946831919625
6.784,0.885918224016872
6.786,0.997758953736328
6.788,1.06345715417195
6.79,1.07100095841771
6.792,1.01180651078303
6.794,0.891157848256691
6.796,0.717947474410603
6.798,0.501076095333387
6.8,0.258731845980763
6.802,0.0462525767768702
6.804,-0.0869802958665149
6.806,-0.154215339725855
6.808,-0.178454949553258
6.81,-0.189
6.812,-0.207222774035877
6.814,-0.232332244580807
6.816,-0.257996557042236
6.818,-0.277883856827612
6.82,-0.285662289344385
6.822,-0.275
6.824,-0.243436904532212
6.826,-0.204
6.828,-0.169825574630218
6.83,-0.139
6.832,-0.107510796946915
6.834,-0.078
6.836,-0.0537956915439227
6.838,-0.0343156316944211
6.84,-0.018
6.842,-0.00368003270056166
6.844,0.00824880719840165
6.846,0.0170000000000001
6.848,0.0220597302817335
6.85,0.024004999718662
6.852,0.0236855142602354
6.854,0.0219509798559031
6.856,0.0196511024551151
6.858,0.0176355880073211
6.86,0.0167297140094783
6.862,0.0171969035512132
6.864,0.0187387253148218
6.866,0.0210323195301075
6.868,0.0237548264268736
6.87,0.0265833862349236
6.872,0.0291951391840608
6.874,0.0312672255040886
6.876,0.0324905874761291
6.878,0.0328736145616375
6.88,0.0327421434024014
6.882,0.0324358126915276
6.884,0.0322942611221227
6.886,0.0326571273872933
6.888,0.033864050180146
6.89,0.0362546681937876
6.892,0.0401436841055604
6.894,0.0452722722302258
6.896,0.0508080785199653
6.898,0.0558938129111955
6.9,0.0596998208139116
6.902,0.0620320635304039
6.904,0.0633321182552582
6.906,0.0640691976566383
6.908,0.0647125144027081
6.91,0.0586466740439079
6.912,0.0588360327055074
6.914,0.0610013059103393
6.916,0.0656573641702727
6.918,0.0727509629389373
6.92,0.0816607426117232
6.922,0.0917406429293148
6.924,0.102344603632396
6.926,0.112850674447582
6.928,0.123191434777881
6.93,0.133853993702695
6.932,0.145349570287357
6.934,0.158189383597199
6.936,0.172640632581859
6.938,0.1878135981163
6.94,0.202365150040776
6.942,0.215283721139384
6.944,0.226933365985033
6.946,0.238279095420131
6.948,0.250545795843688
6.95,0.264969652591957
6.952,0.282496382164308
6.954,0.301282138208106
6.956,0.317439030525127
6.958,0.330009164230196
6.96,0.341050307514579
6.962,0.352769020525728
6.964,0.366854638097472
6.966,0.381707938061504
6.968,0.39482359719027
6.97,0.404683413861444
6.972,0.41371767287362
6.974,0.425322448742521
6.976,0.441246377828496
6.978,0.458120244149337
6.98,0.47162616372403
6.982,0.478364127045001
6.984,0.476834167638517
6.986,0.473928941774421
6.988,0.47779011845743
6.99,0.485137066708928
6.992,0.489544687987571
6.994,0.49035801687486
6.996,0.488829879135433
6.998,0.486658135713039
7,0.485559996907037
7.002,0.486587562521793
7.004,0.488153446526795
7.006,0.488487143734117
7.008,0.486300140293409
7.01,0.480324878499433
7.012,0.470116723264613
7.014,0.458043141945184
7.016,0.446739212062915
7.018,0.437961434016891
7.02,0.430052965615839
7.022,0.420513232860141
7.024,0.407062550052724
7.026,0.388480750309526
7.028,0.366911792627585
7.03,0.345338266514404
7.032,0.32562080201417
7.034,0.305132191317799
7.036,0.280129153854555
7.038,0.248799676803023
7.04,0.216650635924202
7.042,0.189208196726634
7.044,0.164868642458237
7.046,0.141380958857539
7.048,0.121005812087399
7.05,0.105778484875388
7.052,0.0942938480977966
7.054,0.0844244757121028
7.056,0.074042941675784
7.058,0.0610383784717451
7.06,0.0436807646677251
7.062,0.0216407089255966
7.064,-0.00131548553014016
7.066,-0.0203953597630249
7.068,-0.0306599056754137
7.07,-0.0270235660084786
7.072,-0.00438542784610685
7.074,0.0428384500496485
7.076,0.121544229334908
7.078,0.238913452985865
7.08,0.396354963101722
7.082,0.571856644350618
7.084,0.739946831919625
7.086,0.885918224016872
7.088,0.997758953736328
7.09,1.06345715417195
7.092,1.07100095841771
7.094,1.01180651078303
7.096,0.891157848256691
7.098,0.717947474410603
7.1,0.501076095333387
7.102,0.258731845980763
7.104,0.0462525767768702
7.106,-0.0869802958665149
7.108,-0.154215339725855
7.11,-0.178454949553258
7.112,-0.189
7.114,-0.207222774035877
7.116,-0.232332244580807
7.118,-0.257996557042236
7.12,-0.277883856827612
7.122,-0.285662289344385
7.124,-0.275
7.126,-0.243436904532212
7.128,-0.204
7.13,-0.169825574630218
7.132,-0.139
7.134,-0.107510796946915
7.136,-0.078
7.138,-0.0537956915439227
7.14,-0.0343156316944211
7.142,-0.018
7.144,-0.00368003270056166
7.146,0.00824880719840165
7.148,0.0170000000000001
7.15,0.0220597302817335
7.152,0.024004999718662
7.154,0.0236855142602354
7.156,0.0219509798559031
7.158,0.0196511024551151
7.16,0.0176355880073211
7.162,0.0167297140094783
7.164,0.0171969035512132
7.166,0.0187387253148218
7.168,0.0210323195301075
7.17,0.0237548264268736
7.172,0.0265833862349236
7.174,0.0291951391840608
7.176,0.0312672255040886
7.178,0.0324905874761291
7.18,0.0328736145616375
7.182,0.0327421434024014
7.184,0.0324358126915276
7.186,0.0322942611221227
7.188,0.0326571273872933
7.19,0.033864050180146
7.192,0.0362546681937876
7.194,0.0401436841055604
7.196,0.0452722722302258
7.198,0.0508080785199653
7.2,0.0558938129111955
7.202,0.0596998208139116
7.204,0.0620320635304039
7.206,0.0633321182552582
7.208,0.0640691976566383
7.21,0.0647125144027081
7.212,0.0586466740439079
7.214,0.0588360327055074
7.216,0.0610013059103393
7.218,0.0656573641702727
7.22,0.0727509629389373
7.222,0.0816607426117232
7.224,0.0917406429293148
7.226,0.102344603632396
7.228,0.112850674447582
7.23,0.123191434777881
7.232,0.133853993702695
7.234,0.145349570287357
7.236,0.158189383597199
7.238,0.172640632581859
7.24,0.1878135981163
7.242,0.202365150040776
7.244,0.215283721139384
7.246,0.226933365985033
7.248,0.238279095420131
7.25,0.250545795843688
7.252,0.264969652591957
7.254,0.282496382164308
7.256,0.301282138208106
7.258,0.317439030525127
7.26,0.330009164230196
7.262,0.341050307514579
7.264,0.352769020525728
7.266,0.366854638097472
7.268,0.381707938061504
7.27,0.39482359719027
7.272,0.404683413861444
7.274,0.41371767287362
7.276,0.425322448742521
7.278,0.441246377828496
7.28,0.458120244149337
7.282,0.47162616372403
7.284,0.478364127045001
7.286,0.476834167638517
7.288,0.473928941774421
7.29,0.47779011845743
7.292,0.485137066708928
7.294,0.489544687987571
7.296,0.49035801687486
7.298,0.488829879135433
7.3,0.486658135713039
7.302,0.485559996907037
7.304,0.486587562521793
7.306,0.488153446526795
7.308,0.488487143734117
7.31,0.486300140293409
7.312,0.480324878499433
7.314,0.470116723264613
7.316,0.458043141945184
7.318,0.446739212062915
7.32,0.437961434016891
7.322,0.430052965615839
7.324,0.420513232860141
7.326,0.407062550052724
7.328,0.388480750309526
7.33,0.366911792627585
7.332,0.345338266514404
7.334,0.32562080201417
7.336,0.305132191317799
7.338,0.280129153854555
7.34,0.248799676803023
7.342,0.216650635924202
7.344,0.189208196726634
7.346,0.164868642458237
7.348,0.141380958857539
7.35,0.121005812087399
7.352,0.105778484875388
7.354,0.0942938480977966
7.356,0.0844244757121028
7.358,0.074042941675784
7.36,0.0610383784717451
7.362,0.0436807646677251
7.364,0.0216407089255966
7.366,-0.00131548553014016
7.368,-0.0203953597630249
7.37,-0.0306599056754137
7.372,-0.0270235660084786
7.374,-0.00438542784610685
7.376,0.0428384500496485
7.378,0.121544229334908
7.38,0.238913452985865
7.382,0.396354963101722
7.384,0.571856644350618
7.386,0.739946831919625
7.388,0.885918224016872
7.39,0.997758953736328
7.392,1.06345715417195
7.394,1.07100095841771
7.396,1.01180651078303
7.398,0.891157848256691
7.4,0.717947474410603
7.402,0.501076095333387
7.404,0.258731845980763
7.406,0.0462525767768702
7.408,-0.0869802958665149
7.41,-0.154215339725855
7.412,-0.178454949553258
7.414,-0.189
7.416,-0.207222774035877
7.418,-0.232332244580807
7.42,-0.257996557042236
7.422,-0.277883856827612
7.424,-0.285662289344385
7.426,-0.275
7.428,-0.243436904532212
7.43,-0.204
7.432,-0.169825574630218
7.434,-0.139
7.436,-0.107510796946915
7.438,-0.078
7.44,-0.0537956915439227
7.442,-0.0343156316944211
7.444,-0.018
7.446,-0.00368003270056166
7.448,0.00824880719840165
7.45,0.0170000000000001
7.452,0.0220597302817335
7.454,0.024004999718662
7.456,0.0236855142602354
7.458,0.0219509798559031
7.46,0.0196511024551151
7.462,0.0176355880073211
7.464,0.0167297140094783
7.466,0.0171969035512132
7.468,0.0187387253148218
7.47,0.0210323195301075
7.472,0.0237548264268736
7.474,0.0265833862349236
7.476,0.0291951391840608
7.478,0.0312672255040886
7.48,0.0324905874761291
7.482,0.0328736145616375
7.484,0.0327421434024014
7.486,0.0324358126915276
7.488,0.0322942611221227
7.49,0.0326571273872933
7.492,0.033864050180146
7.494,0.0362546681937876
7.496,0.0401436841055604
7.498,0.0452722722302258
7.5,0.0508080785199653
7.502,0.0558938129111955
7.504,0.0596998208139116
7.506,0.0620320635304039
7.508,0.0633321182552582
7.51,0.0640691976566383
7.512,0.0647125144027081
7.514,0.0586466740439079
7.516,0.0588360327055074
7.518,0.0610013059103393
7.52,0.0656573641702727
7.522,0.0727509629389373
7.524,0.0816607426117232
7.526,0.0917406429293148
7.528,0.102344603632396
7.53,0.112850674447582
7.532,0.123191434777881
7.534,0.133853993702695
7.536,0.145349570287357
7.538,0.158189383597199
7.54,0.172640632581859
7.542,0.1878135981163
7.544,0.202365150040776
7.546,0.215283721139384
7.548,0.226933365985033
7.55,0.238279095420131
7.552,0.250545795843688
7.554,0.264969652591957
7.556,0.282496382164308
7.558,0.301282138208106
7.56,0.317439030525127
7.562,0.330009164230196
7.564,0.341050307514579
7.566,0.352769020525728
7.568,0.366854638097472
7.57,0.381707938061504
7.572,0.39482359719027
7.574,0.404683413861444
7.576,0.41371767287362
7.578,0.425322448742521
7.58,0.441246377828496
7.582,0.458120244149337
7.584,0.47162616372403
7.586,0.478364127045001
7.588,0.476834167638517
7.59,0.473928941774421
7.592,0.47779011845743
7.594,0.485137066708928
7.596,0.489544687987571
7.598,0.49035801687486
7.6,0.488829879135433
7.602,0.486658135713039
7.604,0.485559996907037
7.606,0.486587562521793
7.608,0.488153446526795
7.61,0.488487143734117
7.612,0.486300140293409
7.614,0.480324878499433
7.616,0.470116723264613
7.618,0.458043141945184
7.62,0.446739212062915
7.622,0.437961434016891
7.624,0.430052965615839
7.626,0.420513232860141
7.628,0.407062550052724
7.63,0.388480750309526
7.632,0.366911792627585
7.634,0.345338266514404
7.636,0.32562080201417
7.638,0.305132191317799
7.64,0.280129153854555
7.642,0.248799676803023
7.644,0.216650635924202
7.646,0.189208196726634
7.648,0.164868642458237
7.65,0.141380958857539
7.652,0.121005812087399
7.654,0.105778484875388
7.656,0.0942938480977966
7.658,0.0844244757121028
7.66,0.074042941675784
7.662,0.0610383784717451
7.664,0.0436807646677251
7.666,0.0216407089255966
7.668,-0.00131548553014016
7.67,-0.0203953597630249
7.672,-0.0306599056754137
7.674,-0.0270235660084786
7.676,-0.00438542784610685
7.678,0.0428384500496485
7.68,0.121544229334908
7.682,0.238913452985865
7.684,0.396354963101722
7.686,0.571856644350618
7.688,0.739946831919625
7.69,0.885918224016872
7.692,0.997758953736328
7.694,1.06345715417195
7.696,1.07100095841771
7.698,1.01180651078303
7.7,0.891157848256691
7.702,0.717947474410603
7.704,0.501076095333387
7.706,0.258731845980763
7.708,0.0462525767768702
7.71,-0.0869802958665149
7.712,-0.154215339725855
7.714,-0.178454949553258
7.716,-0.189
7.718,-0.207222774035877
7.72,-0.232332244580807
7.722,-0.257996557042236
7.724,-0.277883856827612
7.726,-0.285662289344385
7.728,-0.275
7.73,-0.243436904532212
7.732,-0.204
7.734,-0.169825574630218
7.736,-0.139
7.738,-0.107510796946915
7.74,-0.078
7.742,-0.0537956915439227
7.744,-0.0343156316944211
7.746,-0.018
7.748,-0.00368003270056166
7.75,0.00824880719840165
7.752,0.0170000000000001
7.754,0.0220597302817335
7.756,0.024004999718662
7.758,0.0236855142602354
7.76,0.0219509798559031
7.762,0.0196511024551151
7.764,0.0176355880073211
7.766,0.0167297140094783
7.768,0.0171969035512132
7.77,0.0187387253148218
7.772,0.0210323195301075
7.774,0.0237548264268736
7.776,0.0265833862349236
7.778,0.0291951391840608
7.78,0.0312672255040886
7.782,0.0324905874761291
7.784,0.0328736145616375
7.786,0.0327421434024014
7.788,0.0324358126915276
7.79,0.0322942611221227
7.792,0.0326571273872933
7.794,0.033864050180146
7.796,0.0362546681937876
7.798,0.0401436841055604
7.8,0.0452722722302258
7.802,0.0508080785199653
7.804,0.0558938129111955
7.806,0.0596998208139116
7.808,0.0620320635304039
7.81,0.0633321182552582
7.812,0.0640691976566383
7.814,0.0647125144027081
7.816,0.0586466740439079
7.818,0.0588360327055074
7.82,0.0610013059103393
7.822,0.0656573641702727
7.824,0.0727509629389373
7.826,0.0816607426117232
7.828,0.0917406429293148
7.83,0.102344603632396
7.832,0.112850674447582
7.834,0.123191434777881
7.836,0.133853993702695
7.838,0.145349570287357
7.84,0.158189383597199
7.842,0.172640632581859
7.844,0.1878135981163
7.846,0.202365150040776
7.848,0.215283721139384
7.85,0.226933365985033
7.852,0.238279095420131
7.854,0.250545795843688
7.856,0.264969652591957
7.858,0.282496382164308
7.86,0.301282138208106
7.862,0.317439030525127
7.864,0.330009164230196
7.866,0.341050307514579
7.868,0.352769020525728
7.87,0.366854638097472
7.872,0.381707938061504
7.874,0.39482359719027
7.876,0.404683413861444
7.878,0.41371767287362
7.88,0.425322448742521
7.882,0.441246377828496
7.884,0.458120244149337
7.886,0.47162616372403
7.888,0.478364127045001
7.89,0.476834167638517
7.892,0.473928941774421
7.894,0.47779011845743
7.896,0.485137066708928
7.898,0.489544687987571
7.9,0.49035801687486
7.902,0.488829879135433
7.904,0.486658135713039
7.906,0.485559996907037
7.908,0.486587562521793
7.91,0.488153446526795
7.912,0.488487143734117
7.914,0.486300140293409
7.916,0.480324878499433
7.918,0.470116723264613
7.92,0.458043141945184
7.922,0.446739212062915
7.924,0.437961434016891
7.926,0.430052965615839
7.928,0.420513232860141
7.93,0.407062550052724
7.932,0.388480750309526
7.934,0.366911792627585
7.936,0.345338266514404
7.938,0.32562080201417
7.94,0.305132191317799
7.942,0.280129153854555
7.944,0.248799676803023
7.946,0.216650635924202
7.948,0.189208196726634
7.95,0.164868642458237
7.952,0.141380958857539
7.954,0.121005812087399
7.956,0.105778484875388
7.958,0.0942938480977966
7.96,0.0844244757121028
7.962,0.074042941675784
7.964,0.0610383784717451
7.966,0.0436807646677251
7.968,0.0216407089255966
7.97,-0.00131548553014016
7.972,-0.0203953597630249
7.974,-0.0306599056754137
7.976,-0.0270235660084786
7.978,-0.00438542784610685
7.98,0.0428384500496485
7.982,0.121544229334908
7.984,0.238913452985865
7.986,0.396354963101722
7.988,0.571856644350618
7.99,0.739946831919625
7.992,0.885918224016872
7.994,0.997758953736328
7.996,1.06345715417195
7.998,1.07100095841771
8,1.01180651078303
8.002,0.891157848256691
8.004,0.717947474410603
8.006,0.501076095333387
8.008,0.258731845980763
8.01,0.0462525767768702
8.012,-0.0869802958665149
8.014,-0.154215339725855
8.016,-0.178454949553258
8.018,-0.189
8.02,-0.207222774035877
8.022,-0.232332244580807
8.024,-0.257996557042236
8.026,-0.277883856827612
8.028,-0.285662289344385
8.03,-0.275
8.032,-0.243436904532212
8.034,-0.204
8.036,-0.169825574630218
8.038,-0.139
8.04,-0.107510796946915
8.042,-0.078
8.044,-0.0537956915439227
8.046,-0.0343156316944211
8.048,-0.018
8.05,-0.00368003270056166
8.052,0.00824880719840165
8.054,0.0170000000000001
8.056,0.0220597302817335
8.058,0.024004999718662
8.06,0.0236855142602354
8.062,0.0219509798559031
8.064,0.0196511024551151
8.066,0.0176355880073211
8.068,0.0167297140094783
8.07,0.0171969035512132
8.072,0.0187387253148218
8.074,0.0210323195301075
8.076,0.0237548264268736
8.078,0.0265833862349236
8.08,0.0291951391840608
8.082,0.0312672255040886
8.084,0.0324905874761291
8.086,0.0328736145616375
8.088,0.0327421434024014
8.09,0.0324358126915276
8.092,0.0322942611221227
8.094,0.0326571273872933
8.096,0.033864050180146
8.098,0.0362546681937876
8.1,0.0401436841055604
8.102,0.0452722722302258
8.104,0.0508080785199653
8.106,0.0558938129111955
8.108,0.0596998208139116
8.11,0.0620320635304039
8.112,0.0633321182552582
8.114,0.0640691976566383
8.116,0.0647125144027081
8.118,0.0586466740439079
8.12,0.0588360327055074
8.122,0.0610013059103393
8.124,0.0656573641702727
8.126,0.0727509629389373
8.128,0.0816607426117232
8.13,0.0917406429293148
8.132,0.102344603632396
8.134,0.112850674447582
8.136,0.123191434777881
8.138,0.133853993702695
8.14,0.145349570287357
8.142,0.158189383597199
8.144,0.172640632581859
8.146,0.1878135981163
8.148,0.202365150040776
8.15,0.215283721139384
8.152,0.226933365985033
8.154,0.238279095420131
8.156,0.250545795843688
8.158,0.264969652591957
8.16,0.282496382164308
8.162,0.301282138208106
8.164,0.317439030525127
8.166,0.330009164230196
8.168,0.341050307514579
8.17,0.352769020525728
8.172,0.366854638097472
8.174,0.381707938061504
8.176,0.39482359719027
8.178,0.404683413861444
8.18,0.41371767287362
8.182,0.425322448742521
8.184,0.441246377828496
8.186,0.458120244149337
8.188,0.47162616372403
8.19,0.478364127045001
8.192,0.476834167638517
8.194,0.473928941774421
8.196,0.47779011845743
8.198,0.485137066708928
8.2,0.489544687987571
8.202,0.49035801687486
8.204,0.488829879135433
8.206,0.486658135713039
8.208,0.485559996907037
8.21,0.486587562521793
8.212,0.488153446526795
8.214,0.488487143734117
8.216,0.486300140293409
8.218,0.480324878499433
8.22,0.470116723264613
8.222,0.458043141945184
8.224,0.446739212062915
8.226,0.437961434016891
8.228,0.430052965615839
8.23,0.420513232860141
8.232,0.407062550052724
8.234,0.388480750309526
8.236,0.366911792627585
8.238,0.345338266514404
8.24,0.32562080201417
8.242,0.305132191317799
8.244,0.280129153854555
8.246,0.248799676803023
8.248,0.216650635924202
8.25,0.189208196726634
8.252,0.164868642458237
8.254,0.141380958857539
8.256,0.121005812087399
8.258,0.105778484875388
8.26,0.0942938480977966
8.262,0.0844244757121028
8.264,0.074042941675784
8.266,0.0610383784717451
8.268,0.0436807646677251
8.27,0.0216407089255966
8.272,-0.00131548553014016
8.274,-0.0203953597630249
8.276,-0.0306599056754137
8.278,-0.0270235660084786
8.28,-0.00438542784610685
8.282,0.0428384500496485
8.284,0.121544229334908
8.286,0.238913452985865
8.288,0.396354963101722
8.29,0.571856644350618
8.292,0.739946831919625
8.294,0.885918224016872
8.296,0.997758953736328
8.298,1.06345715417195
8.3,1.07100095841771
8.302,1.01180651078303
8.304,0.891157848256691
8.306,0.717947474410603
8.308,0.501076095333387
8.31,0.258731845980763
8.312,0.0462525767768702
8.314,-0.0869802958665149
8.316,-0.154215339725855
8.318,-0.178454949553258
8.32,-0.189
8.322,-0.207222774035877
8.324,-0.232332244580807
8.326,-0.257996557042236
8.328,-0.277883856827612
8.33,-0.285662289344385
8.332,-0.275
8.334,-0.243436904532212
8.336,-0.204
8.338,-0.169825574630218
8.34,-0.139
8.342,-0.107510796946915
8.344,-0.078
8.346,-0.0537956915439227
8.348,-0.0343156316944211
8.35,-0.018
8.352,-0.00368003270056166
8.354,0.00824880719840165
8.356,0.0170000000000001
8.358,0.0220597302817335
8.36,0.024004999718662
8.362,0.0236855142602354
8.364,0.0219509798559031
8.366,0.0196511024551151
8.368,0.0176355880073211
8.37,0.0167297140094783
8.372,0.0171969035512132
8.374,0.0187387253148218
8.376,0.0210323195301075
8.378,0.0237548264268736
8.38,0.0265833862349236
8.382,0.0291951391840608
8.384,0.0312672255040886
8.386,0.0324905874761291
8.388,0.0328736145616375
8.39,0.0327421434024014
8.392,0.0324358126915276
8.394,0.0322942611221227
8.396,0.0326571273872933
8.398,0.033864050180146
8.4,0.0362546681937876
8.402,0.0401436841055604
8.404,0.0452722722302258
8.406,0.0508080785199653
8.408,0.0558938129111955
8.41,0.0596998208139116
8.412,0.0620320635304039
8.414,0.0633321182552582
8.416,0.0640691976566383
8.418,0.0647125144027081
8.42,0.0586466740439079
8.422,0.0588360327055074
8.424,0.0610013059103393
8.426,0.0656573641702727
8.428,0.0727509629389373
8.43,0.0816607426117232
8.432,0.0917406429293148
8.434,0.102344603632396
8.436,0.112850674447582
8.438,0.123191434777881
8.44,0.133853993702695
8.442,0.145349570287357
8.444,0.158189383597199
8.446,0.172640632581859
8.448,0.1878135981163
8.45,0.202365150040776
8.452,0.215283721139384
8.454,0.226933365985033
8.456,0.238279095420131
8.458,0.250545795843688
8.46,0.264969652591957
8.462,0.282496382164308
8.464,0.301282138208106
8.466,0.317439030525127
8.468,0.330009164230196
8.47,0.341050307514579
8.472,0.352769020525728
8.474,0.366854638097472
8.476,0.381707938061504
8.478,0.39482359719027
8.48,0.404683413861444
8.482,0.41371767287362
8.484,0.425322448742521
8.486,0.441246377828496
8.488,0.458120244149337
8.49,0.47162616372403
8.492,0.478364127045001
8.494,0.476834167638517
8.496,0.473928941774421
8.498,0.47779011845743
8.5,0.485137066708928
8.502,0.489544687987571
8.504,0.49035801687486
8.506,0.488829879135433
8.508,0.486658135713039
8.51,0.485559996907037
8.512,0.486587562521793
8.514,0.488153446526795
8.516,0.488487143734117
8.518,0.486300140293409
8.52,0.480324878499433
8.522,0.470116723264613
8.524,0.458043141945184
8.526,0.446739212062915
8.528,0.437961434016891
8.53,0.430052965615839
8.532,0.420513232860141
8.534,0.407062550052724
8.536,0.388480750309526
8.538,0.366911792627585
8.54,0.345338266514404
8.542,0.32562080201417
8.544,0.305132191317799
8.546,0.280129153854555
8.548,0.248799676803023
8.55,0.216650635924202
8.552,0.189208196726634
8.554,0.164868642458237
8.556,0.141380958857539
8.558,0.121005812087399
8.56,0.105778484875388
8.562,0.0942938480977966
8.564,0.0844244757121028
8.566,0.074042941675784
8.568,0.0610383784717451
8.57,0.0436807646677251
8.572,0.0216407089255966
8.574,-0.00131548553014016
8.576,-0.0203953597630249
8.578,-0.0306599056754137
8.58,-0.0270235660084786
8.582,-0.00438542784610685
8.584,0.0428384500496485
8.586,0.121544229334908
8.588,0.238913452985865
8.59,0.396354963101722
8.592,0.571856644350618
8.594,0.739946831919625
8.596,0.885918224016872
8.598,0.997758953736328
8.6,1.06345715417195
8.602,1.07100095841771
8.604,1.01180651078303
8.606,0.891157848256691
8.608,0.717947474410603
8.61,0.501076095333387
8.612,0.258731845980763
8.614,0.0462525767768702
8.616,-0.0869802958665149
8.618,-0.154215339725855
8.62,-0.178454949553258
8.622,-0.189
8.624,-0.207222774035877
8.626,-0.232332244580807
8.628,-0.257996557042236
8.63,-0.277883856827612
8.632,-0.285662289344385
8.634,-0.275
8.636,-0.243436904532212
8.638,-0.204
8.64,-0.169825574630218
8.642,-0.139
8.644,-0.107510796946915
8.646,-0.078
8.648,-0.0537956915439227
8.65,-0.0343156316944211
8.652,-0.018
8.654,-0.00368003270056166
8.656,0.00824880719840165
8.658,0.0170000000000001
8.66,0.0220597302817335
8.662,0.024004999718662
8.664,0.0236855142602354
8.666,0.0219509798559031
8.668,0.0196511024551151
8.67,0.0176355880073211
8.672,0.0167297140094783
8.674,0.0171969035512132
8.676,0.0187387253148218
8.678,0.0210323195301075
8.68,0.0237548264268736
8.682,0.0265833862349236
8.684,0.0291951391840608
8.686,0.0312672255040886
8.688,0.0324905874761291
8.69,0.0328736145616375
8.692,0.0327421434024014
8.694,0.0324358126915276
8.696,0.0322942611221227
8.698,0.0326571273872933
8.7,0.033864050180146
8.702,0.0362546681937876
8.704,0.0401436841055604
8.706,0.0452722722302258
8.708,0.0508080785199653
8.71,0.0558938129111955
8.712,0.0596998208139116
8.714,0.0620320635304039
8.716,0.0633321182552582
8.718,0.0640691976566383
8.72,0.0647125144027081
8.722,0.0586466740439079
8.724,0.0588360327055074
8.726,0.0610013059103393
8.728,0.0656573641702727
8.73,0.0727509629389373
8.732,0.0816607426117232
8.734,0.0917406429293148
8.736,0.102344603632396
8.738,0.112850674447582
8.74,0.123191434777881
8.742,0.133853993702695
8.744,0.145349570287357
8.746,0.158189383597199
8.748,0.172640632581859
8.75,0.1878135981163
8.752,0.202365150040776
8.754,0.215283721139384
8.756,0.226933365985033
8.758,0.238279095420131
8.76,0.250545795843688
8.762,0.264969652591957
8.764,0.282496382164308
8.766,0.301282138208106
8.768,0.317439030525127
8.77,0.330009164230196
8.772,0.341050307514579
8.774,0.352769020525728
8.776,0.366854638097472
8.778,0.381707938061504
8.78,0.39482359719027
8.782,0.404683413861444
8.784,0.41371767287362
8.786,0.425322448742521
8.788,0.441246377828496
8.79,0.458120244149337
8.792,0.47162616372403
8.794,0.478364127045001
8.796,0.476834167638517
8.798,0.473928941774421
8.8,0.47779011845743
8.802,0.485137066708928
8.804,0.489544687987571
8.806,0.49035801687486
8.808,0.488829879135433
8.81,0.486658135713039
8.812,0.485559996907037
8.814,0.486587562521793
8.816,0.488153446526795
8.818,0.488487143734117
8.82,0.486300140293409
8.822,0.480324878499433
8.824,0.470116723264613
8.826,0.458043141945184
8.828,0.446739212062915
8.83,0.437961434016891
8.832,0.430052965615839
8.834,0.420513232860141
8.836,0.407062550052724
8.838,0.388480750309526
8.84,0.366911792627585
8.842,0.345338266514404
8.844,0.32562080201417
8.846,0.305132191317799
8.848,0.280129153854555
8.85,0.248799676803023
8.852,0.216650635924202
8.854,0.189208196726634
8.856,0.164868642458237
8.858,0.141380958857539
8.86,0.121005812087399
8.862,0.105778484875388
8.864,0.0942938480977966
8.866,0.0844244757121028
8.868,0.074042941675784
8.87,0.0610383784717451
8.872,0.0436807646677251
8.874,0.0216407089255966
8.876,-0.00131548553014016
8.878,-0.0203953597630249
8.88,-0.0306599056754137
8.882,-0.0270235660084786
8.884,-0.00438542784610685
8.886,0.0428384500496485
8.888,0.121544229334908
8.89,0.238913452985865
8.892,0.396354963101722
8.894,0.571856644350618
8.896,0.739946831919625
8.898,0.885918224016872
8.9,0.997758953736328
8.902,1.06345715417195
8.904,1.07100095841771
8.906,1.01180651078303
8.908,0.891157848256691
8.91,0.717947474410603
8.912,0.501076095333387
8.914,0.258731845980763
8.916,0.0462525767768702
8.918,-0.0869802958665149
8.92,-0.154215339725855
8.922,-0.178454949553258
8.924,-0.189
8.926,-0.207222774035877
8.928,-0.232332244580807
8.93,-0.257996557042236
8.932,-0.277883856827612
8.934,-0.285662289344385
8.936,-0.275
8.938,-0.243436904532212
8.94,-0.204
8.942,-0.169825574630218
8.944,-0.139
8.946,-0.107510796946915
8.948,-0.078
8.95,-0.0537956915439227
8.952,-0.0343156316944211
8.954,-0.018
8.956,-0.00368003270056166
8.958,0.00824880719840165
8.96,0.0170000000000001
8.962,0.0220597302817335
8.964,0.024004999718662
8.966,0.0236855142602354
8.968,0.0219509798559031
8.97,0.0196511024551151
8.972,0.0176355880073211
8.974,0.0167297140094783
8.976,0.0171969035512132
8.978,0.0187387253148218
8.98,0.0210323195301075
8.982,0.0237548264268736
8.984,0.0265833862349236
8.986,0.0291951391840608
8.988,0.0312672255040886
8.99,0.0324905874761291
8.992,0.0328736145616375
8.994,0.0327421434024014
8.996,0.0324358126915276
8.998,0.0322942611221227
9,0.0326571273872933
9.002,0.033864050180146
9.004,0.0362546681937876
9.006,0.0401436841055604
9.008,0.0452722722302258
9.01,0.0508080785199653
9.012,0.0558938129111955
9.014,0.0596998208139116
9.016,0.0620320635304039
9.018,0.0633321182552582
9.02,0.0640691976566383
9.022,0.0647125144027081
9.024,0.0586466740439079
9.026,0.0588360327055074
9.028,0.0610013059103393
9.03,0.0656573641702727
9.032,0.0727509629389373
9.034,0.0816607426117232
9.036,0.0917406429293148
9.038,0.102344603632396
9.04,0.112850674447582
9.042,0.123191434777881
9.044,0.133853993702695
9.046,0.145349570287357
9.048,0.158189383597199
9.05,0.172640632581859
9.052,0.1878135981163
9.054,0.202365150040776
9.056,0.215283721139384
9.058,0.226933365985033
9.06,0.238279095420131
9.062,0.250545795843688
9.064,0.264969652591957
9.066,0.282496382164308
9.068,0.301282138208106
9.07,0.317439030525127
9.072,0.330009164230196
9.074,0.341050307514579
9.076,0.352769020525728
9.078,0.366854638097472
9.08,0.381707938061504
9.082,0.39482359719027
9.084,0.404683413861444
9.086,0.41371767287362
9.088,0.425322448742521
9.09,0.441246377828496
9.092,0.458120244149337
9.094,0.47162616372403
9.096,0.478364127045001
9.098,0.476834167638517
9.1,0.473928941774421
9.102,0.47779011845743
9.104,0.485137066708928
9.106,0.489544687987571
9.108,0.49035801687486
9.11,0.488829879135433
9.112,0.486658135713039
9.114,0.485559996907037
9.116,0.486587562521793
9.118,0.488153446526795
9.12,0.488487143734117
9.122,0.486300140293409
9.124,0.480324878499433
9.126,0.470116723264613
9.128,0.458043141945184
9.13,0.446739212062915
9.132,0.437961434016891
9.134,0.430052965615839
9.136,0.420513232860141
9.138,0.407062550052724
9.14,0.388480750309526
9.142,0.366911792627585
9.144,0.345338266514404
9.146,0.32562080201417
9.148,0.305132191317799
9.15,0.280129153854555
9.152,0.248799676803023
9.154,0.216650635924202
9.156,0.189208196726634
9.158,0.164868642458237
9.16,0.141380958857539
9.162,0.121005812087399
9.164,0.105778484875388
9.166,0.0942938480977966
9.168,0.0844244757121028
9.17,0.074042941675784
9.172,0.0610383784717451
9.174,0.0436807646677251
9.176,0.0216407089255966
9.178,-0.00131548553014016
9.18,-0.0203953597630249
9.182,-0.0306599056754137
9.184,-0.0270235660084786
9.186,-0.00438542784610685
9.188,0.0428384500496485
9.19,0.121544229334908
9.192,0.238913452985865
9.194,0.396354963101722
9.196,0.571856644350618
9.198,0.739946831919625
9.2,0.885918224016872
9.202,0.997758953736328
9.204,1.06345715417195
9.206,1.07100095841771
9.208,1.01180651078303
9.21,0.891157848256691
9.212,0.717947474410603
9.214,0.501076095333387
9.216,0.258731845980763
9.218,0.0462525767768702
9.22,-0.0869802958665149
9.222,-0.154215339725855
9.224,-0.178454949553258
9.226,-0.189
9.228,-0.207222774035877
9.23,-0.232332244580807
9.232,-0.257996557042236
9.234,-0.277883856827612
9.236,-0.285662289344385
9.238,-0.275
9.24,-0.243436904532212
9.242,-0.204
9.244,-0.169825574630218
9.246,-0.139
9.248,-0.107510796946915
9.25,-0.078
9.252,-0.0537956915439227
9.254,-0.0343156316944211
9.256,-0.018
9.258,-0.00368003270056166
9.26,0.00824880719840165
9.262,0.0170000000000001
9.264,0.0220597302817335
9.266,0.024004999718662
9.268,0.0236855142602354
9.27,0.0219509798559031
9.272,0.0196511024551151
9.274,0.0176355880073211
9.276,0.0167297140094783
9.278,0.0171969035512132
9.28,0.0187387253148218
9.282,0.0210323195301075
9.284,0.0237548264268736
9.286,0.0265833862349236
9.288,0.0291951391840608
9.29,0.0312672255040886
9.292,0.0324905874761291
9.294,0.0328736145616375
9.296,0.0327421434024014
9.298,0.0324358126915276
9.3,0.0322942611221227
9.302,0.0326571273872933
9.304,0.033864050180146
9.306,0.0362546681937876
9.308,0.0401436841055604
9.31,0.0452722722302258
9.312,0.0508080785199653
9.314,0.0558938129111955
9.316,0.0596998208139116
9.318,0.0620320635304039
9.32,0.0633321182552582
9.322,0.0640691976566383
9.324,0.0647125144027081
9.326,0.0586466740439079
9.328,0.0588360327055074
9.33,0.0610013059103393
9.332,0.0656573641702727
9.334,0.0727509629389373
9.336,0.0816607426117232
9.338,0.0917406429293148
9.34,0.102344603632396
9.342,0.112850674447582
9.344,0.123191434777881
9.346,0.133853993702695
9.348,0.145349570287357
9.35,0.158189383597199
9.352,0.172640632581859
9.354,0.1878135981163
9.356,0.202365150040776
9.358,0.215283721139384
9.36,0.226933365985033
9.362,0.238279095420131
9.364,0.250545795843688
9.366,0.264969652591957
9.368,0.282496382164308
9.37,0.301282138208106
9.372,0.317439030525127
9.374,0.330009164230196
9.376,0.341050307514579
9.378,0.352769020525728
9.38,0.366854638097472
9.382,0.381707938061504
9.384,0.39482359719027
9.386,0.404683413861444
9.388,0.41371767287362
9.39,0.425322448742521
9.392,0.441246377828496
9.394,0.458120244149337
9.396,0.47162616372403
9.398,0.478364127045001
9.4,0.476834167638517
9.402,0.473928941774421
9.404,0.47779011845743
9.406,0.485137066708928
9.408,0.489544687987571
9.41,0.49035801687486
9.412,0.488829879135433
9.414,0.486658135713039
9.416,0.485559996907037
9.418,0.486587562521793
9.42,0.488153446526795
9.422,0.488487143734117
9.424,0.486300140293409
9.426,0.480324878499433
9.428,0.470116723264613
9.43,0.458043141945184
9.432,0.446739212062915
9.434,0.437961434016891
9.436,0.430052965615839
9.438,0.420513232860141
9.44,0.407062550052724
9.442,0.388480750309526
9.444,0.366911792627585
9.446,0.345338266514404
9.448,0.32562080201417
9.45,0.305132191317799
9.452,0.280129153854555
9.454,0.248799676803023
9.456,0.216650635924202
9.458,0.189208196726634
9.46,0.164868642458237
9.462,0.141380958857539
9.464,0.121005812087399
9.466,0.105778484875388
9.468,0.0942938480977966
9.47,0.0844244757121028
9.472,0.074042941675784
9.474,0.0610383784717451
9.476,0.0436807646677251
9.478,0.0216407089255966
9.48,-0.00131548553014016
9.482,-0.0203953597630249
9.484,-0.0306599056754137
9.486,-0.0270235660084786
9.488,-0.00438542784610685
9.49,0.0428384500496485
9.492,0.121544229334908
9.494,0.238913452985865
9.496,0.396354963101722
9.498,0.571856644350618
9.5,0.739946831919625
9.502,0.885918224016872
9.504,0.997758953736328
9.506,1.06345715417195
9.508,1.07100095841771
9.51,1.01180651078303
9.512,0.891157848256691
9.514,0.717947474410603
9.516,0.501076095333387
9.518,0.258731845980763
9.52,0.0462525767768702
9.522,-0.0869802958665149
9.524,-0.154215339725855
9.526,-0.178454949553258
9.528,-0.189
9.53,-0.207222774035877
9.532,-0.232332244580807
9.534,-0.257996557042236
9.536,-0.277883856827612
9.538,-0.285662289344385
9.54,-0.275
9.542,-0.243436904532212
9.544,-0.204
9.546,-0.169825574630218
9.548,-0.139
9.55,-0.107510796946915
9.552,-0.078
9.554,-0.0537956915439227
9.556,-0.0343156316944211
9.558,-0.018
9.56,-0.00368003270056166
9.562,0.00824880719840165
9.564,0.0170000000000001
9.566,0.0220597302817335
9.568,0.024004999718662
9.57,0.0236855142602354
9.572,0.0219509798559031
9.574,0.0196511024551151
9.576,0.0176355880073211
9.578,0.0167297140094783
9.58,0.0171969035512132
9.582,0.0187387253148218
9.584,0.0210323195301075
9.586,0.0237548264268736
9.588,0.0265833862349236
9.59,0.0291951391840608
9.592,0.0312672255040886
9.594,0.0324905874761291
9.596,0.0328736145616375
9.598,0.0327421434024014
9.6,0.0324358126915276
9.602,0.0322942611221227
9.604,0.0326571273872933
9.606,0.033864050180146
9.608,0.0362546681937876
9.61,0.0401436841055604
9.612,0.0452722722302258
9.614,0.0508080785199653
9.616,0.0558938129111955
9.618,0.0596998208139116
9.62,0.0620320635304039
9.622,0.0633321182552582
9.624,0.0640691976566383
9.626,0.0647125144027081
9.628,0.0586466740439079
9.63,0.0588360327055074
9.632,0.0610013059103393
9.634,0.0656573641702727
9.636,0.0727509629389373
9.638,0.0816607426117232
9.64,0.0917406429293148
9.642,0.102344603632396
9.644,0.112850674447582
9.646,0.123191434777881
9.648,0.133853993702695
9.65,0.145349570287357
9.652,0.158189383597199
9.654,0.172640632581859
9.656,0.1878135981163
9.658,0.202365150040776
9.66,0.215283721139384
9.662,0.226933365985033
9.664,0.238279095420131
9.666,0.250545795843688
9.668,0.264969652591957
9.67,0.282496382164308
9.672,0.301282138208106
9.674,0.317439030525127
9.676,0.330009164230196
9.678,0.341050307514579
9.68,0.352769020525728
9.682,0.366854638097472
9.684,0.381707938061504
9.686,0.39482359719027
9.688,0.404683413861444
9.69,0.41371767287362
9.692,0.425322448742521
9.694,0.441246377828496
9.696,0.458120244149337
9.698,0.47162616372403
9.7,0.478364127045001
9.702,0.476834167638517
9.704,0.473928941774421
9.706,0.47779011845743
9.708,0.485137066708928
9.71,0.489544687987571
9.712,0.49035801687486
9.714,0.488829879135433
9.716,0.486658135713039
9.718,0.485559996907037
9.72,0.486587562521793
9.722,0.488153446526795
9.724,0.488487143734117
9.726,0.486300140293409
9.728,0.480324878499433
9.73,0.470116723264613
9.732,0.458043141945184
9.734,0.446739212062915
9.736,0.437961434016891
9.738,0.430052965615839
9.74,0.420513232860141
9.742,0.407062550052724
9.744,0.388480750309526
9.746,0.366911792627585
9.748,0.345338266514404
9.75,0.32562080201417
9.752,0.305132191317799
9.754,0.280129153854555
9.756,0.248799676803023
9.758,0.216650635924202
9.76,0.189208196726634
9.762,0.164868642458237
9.764,0.141380958857539
9.766,0.121005812087399
9.768,0.105778484875388
9.77,0.0942938480977966
9.772,0.0844244757121028
9.774,0.074042941675784
9.776,0.0610383784717451
9.778,0.0436807646677251
9.78,0.0216407089255966
9.782,-0.00131548553014016
9.784,-0.0203953597630249
9.786,-0.0306599056754137
9.788,-0.0270235660084786
9.79,-0.00438542784610685
9.792,0.0428384500496485
9.794,0.121544229334908
9.796,0.238913452985865
9.798,0.396354963101722
9.8,0.571856644350618
9.802,0.739946831919625
9.804,0.885918224016872
9.806,0.997758953736328
9.808,1.06345715417195
9.81,1.07100095841771
9.812,1.01180651078303
9.814,0.891157848256691
9.816,0.717947474410603
9.818,0.501076095333387
9.82,0.258731845980763
9.822,0.0462525767768702
9.824,-0.0869802958665149
9.826,-0.154215339725855
9.828,-0.178454949553258
9.83,-0.189
9.832,-0.207222774035877
9.834,-0.232332244580807
9.836,-0.257996557042236
9.838,-0.277883856827612
9.84,-0.285662289344385
9.842,-0.275
9.844,-0.243436904532212
9.846,-0.204
9.848,-0.169825574630218
9.85,-0.139
9.852,-0.107510796946915
9.854,-0.078
9.856,-0.0537956915439227
9.858,-0.0343156316944211
9.86,-0.018
9.862,-0.00368003270056166
9.864,0.00824880719840165
9.866,0.0170000000000001
9.868,0.0220597302817335
9.87,0.024004999718662
9.872,0.0236855142602354
9.874,0.0219509798559031
9.876,0.0196511024551151
9.878,0.0176355880073211
9.88,0.0167297140094783
9.882,0.0171969035512132
9.884,0.0187387253148218
9.886,0.0210323195301075
9.888,0.0237548264268736
9.89,0.0265833862349236
9.892,0.0291951391840608
9.894,0.0312672255040886
9.896,0.0324905874761291
9.898,0.0328736145616375
9.9,0.0327421434024014
9.902,0.0324358126915276
9.904,0.0322942611221227
9.906,0.0326571273872933
9.908,0.033864050180146
9.91,0.0362546681937876
9.912,0.0401436841055604
9.914,0.0452722722302258
9.916,0.0508080785199653
9.918,0.0558938129111955
9.92,0.0596998208139116
9.922,0.0620320635304039
9.924,0.0633321182552582
9.926,0.0640691976566383
9.928,0.0647125144027081
9.93,0.0586466740439079
9.932,0.0588360327055074
9.934,0.0610013059103393
9.936,0.0656573641702727
9.938,0.0727509629389373
9.94,0.0816607426117232
9.942,0.0917406429293148
9.944,0.102344603632396
9.946,0.112850674447582
9.948,0.123191434777881
9.95,0.133853993702695
9.952,0.145349570287357
9.954,0.158189383597199
9.956,0.172640632581859
9.958,0.1878135981163
9.96,0.202365150040776
9.962,0.215283721139384
9.964,0.226933365985033
9.966,0.238279095420131
9.968,0.250545795843688
9.97,0.264969652591957
9.972,0.282496382164308
9.974,0.301282138208106
9.976,0.317439030525127
9.978,0.330009164230196
9.98,0.341050307514579
9.982,0.352769020525728
9.984,0.366854638097472
9.986,0.381707938061504
9.988,0.39482359719027
9.99,0.404683413861444
9.992,0.41371767287362
9.994,0.425322448742521
9.996,0.441246377828496
9.998,0.458120244149337
10,0.47162616372403
10.002,0.478364127045001
10.004,0.476834167638517
10.006,0.473928941774421
10.008,0.47779011845743
10.01,0.485137066708928
10.012,0.489544687987571
10.014,0.49035801687486
10.016,0.488829879135433
10.018,0.486658135713039
10.02,0.485559996907037
10.022,0.486587562521793
10.024,0.488153446526795
10.026,0.488487143734117
10.028,0.486300140293409
10.03,0.480324878499433
10.032,0.470116723264613
10.034,0.458043141945184
10.036,0.446739212062915
10.038,0.437961434016891
10.04,0.430052965615839
10.042,0.420513232860141
10.044,0.407062550052724
10.046,0.388480750309526
10.048,0.366911792627585
10.05,0.345338266514404
10.052,0.32562080201417
10.054,0.305132191317799
10.056,0.280129153854555
10.058,0.248799676803023
10.06,0.216650635924202
10.062,0.189208196726634
10.064,0.164868642458237
10.066,0.141380958857539
10.068,0.121005812087399
10.07,0.105778484875388
10.072,0.0942938480977966
10.074,0.0844244757121028
10.076,0.074042941675784
10.078,0.0610383784717451
10.08,0.0436807646677251
10.082,0.0216407089255966
10.084,-0.00131548553014016
10.086,-0.0203953597630249
10.088,-0.0306599056754137
10.09,-0.0270235660084786
10.092,-0.00438542784610685
10.094,0.0428384500496485
10.096,0.121544229334908
10.098,0.238913452985865
10.1,0.396354963101722
10.102,0.571856644350618
10.104,0.739946831919625
10.106,0.885918224016872
10.108,0.997758953736328
10.11,1.06345715417195
10.112,1.07100095841771
10.114,1.01180651078303
10.116,0.891157848256691
10.118,0.717947474410603
10.12,0.501076095333387
10.122,0.258731845980763
