0.002,0
0.004,0
0.006,0
0.008,0
0.01,0
0.012,0
0.014,0
0.016,0
0.018,0
0.02,0
0.022,0
0.024,0
0.026,0
0.028,0
0.03,0
0.032,0
0.034,0
0.036,0
0.038,0
0.04,0
0.042,0
0.044,0
0.046,0
0.048,0
0.05,0
0.052,0
0.054,0
0.056,0
0.058,0
0.06,0
0.062,0
0.064,0
0.066,0
0.068,0
0.07,0
0.072,0
0.074,0
0.076,0
0.078,0
0.08,0
0.082,0
0.084,0
0.086,0
0.088,0
0.09,0
0.092,0
0.094,0
0.096,0
0.098,0
0.1,0
0.102,0
0.104,0
0.106,0
0.108,0
0.11,0
0.112,0
0.114,0
0.116,0
0.118,0
0.12,0
0.122,0
0.124,0
0.126,0
0.128,0
0.13,0
0.132,0
0.134,0
0.136,0
0.138,0
0.14,0
0.142,0
0.144,0
0.146,0
0.148,0
0.15,0
0.152,0
0.154,0
0.156,0
0.158,0
0.16,0
0.162,0
0.164,0
0.166,0
0.168,0
0.17,0
0.172,0
0.174,0
0.176,0
0.178,0
0.18,0
0.182,0
0.184,0
0.186,0
0.188,0
0.19,0
0.192,0
0.194,0
0.196,0
0.198,0
0.2,0
0.202,0
0.204,0
0.206,0
0.208,0
0.21,0
0.212,0
0.214,0
0.216,0
0.218,0
0.22,0
0.222,0
0.224,0
0.226,0
0.228,0
0.23,0
0.232,0
0.234,0
0.236,0
0.238,0
0.24,0
0.242,0
0.244,0
0.246,0
0.248,0
0.25,0
0.252,0
0.254,0
0.256,0
0.258,0
0.26,0
0.262,0
0.264,0
0.266,0
0.268,0
0.27,0
0.272,0
0.274,0
0.276,0
0.278,0
0.28,0
0.282,0
0.284,0
0.286,0
0.288,0
0.29,0
0.292,0
0.294,0
0.296,0
0.298,0
0.3,0
0.302,0
0.304,0
0.306,0
0.308,0
0.31,0
0.312,0
0.314,0
0.316,0
0.318,0
0.32,0
0.322,0
0.324,0
0.326,0
0.328,0
0.33,0
0.332,0
0.334,0
0.336,0
0.338,0
0.34,0
0.342,0
0.344,0
0.346,0
0.348,0
0.35,0
0.352,0
0.354,0
0.356,0
0.358,0
0.36,0
0.362,0
0.364,0
0.366,0
0.368,0
0.37,0
0.372,0
0.374,0
0.376,0
0.378,0
0.38,0
0.382,0
0.384,0
0.386,0
0.388,0
0.39,0
0.392,0
0.394,0
0.396,0
0.398,0
0.4,0
0.402,0
0.404,0
0.406,0
0.408,0
0.41,0
0.412,0
0.414,0
0.416,0
0.418,0
0.42,0
0.422,0
0.424,0
0.426,0
0.428,0
0.43,0
0.432,0
0.434,0
0.436,0
0.438,0
0.44,0
0.442,0
0.444,0
0.446,0
0.448,0
0.45,0
0.452,0
0.454,0
0.456,0
0.458,0
0.46,0
0.462,0
0.464,0
0.466,0
0.468,0
0.47,0
0.472,0
0.474,0
0.476,0
0.478,0
0.48,0
0.482,0
0.484,0
0.486,0
0.488,0
0.49,0
0.492,0
0.494,0
0.496,0
0.498,0
0.5,0
0.502,0
0.504,0
0.506,0
0.508,0
0.51,0
0.512,0
0.514,0
0.516,0
0.518,0
0.52,0
0.522,0
0.524,0
0.526,0
0.528,0
0.53,0
0.532,0
0.534,0
0.536,0
0.538,0
0.54,0
0.542,0
0.544,0
0.546,0
0.548,0
0.55,0
0.552,0
0.554,0
0.556,0
0.558,0
0.56,0
0.562,0
0.564,0
0.566,0
0.568,0
0.57,0
0.572,0
0.574,0
0.576,0
0.578,0
0.58,0
0.582,0
0.584,0
0.586,0
0.588,0
0.59,0
0.592,0
0.594,0
0.596,0
0.598,0
0.6,0
0.602,0
0.604,0
0.606,0
0.608,0
0.61,0
0.612,0
0.614,0
0.616,0
0.618,0
0.62,0
0.622,0
0.624,0
0.626,0
0.628,0
0.63,0
0.632,0
0.634,0
0.636,0
0.638,0
0.64,0
0.642,0
0.644,0
0.646,0
0.648,0
0.65,0
0.652,0
0.654,0
0.656,0
0.658,0
0.66,0
0.662,0
0.664,0
0.666,0
0.668,0
0.67,0
0.672,0
0.674,0
0.676,0
0.678,0
0.68,0
0.682,0
0.684,0
0.686,0
0.688,0
0.69,0
0.692,0
0.694,0
0.696,0
0.698,0
0.7,0
0.702,0
0.704,0
0.706,0
0.708,0
0.71,0
0.712,0
0.714,0
0.716,0
0.718,0
0.72,0
0.722,0
0.724,0
0.726,0
0.728,0
0.73,0
0.732,0
0.734,0
0.736,0
0.738,0
0.74,0
0.742,0
0.744,0
0.746,0
0.748,0
0.75,0
0.752,-0.00708460711772357
0.754,-0.00875867789606505
0.756,-0.0097707094803553
0.758,-0.0100503433721833
0.76,-0.0095272210731378
0.762,-0.00813098408480784
0.764,-0.00579127390878231
0.766,-0.00243773204665004
0.768,0.002
0.77,0.00759228072957896
0.772,0.0144094686404979
0.774,0.0225219222311678
0.776,0.032
0.778,0.0426795580987543
0.78,0.0534584432925861
0.782,0.063
0.784,0.0703086533523926
0.786,0.0757531513327301
0.788,0.0800433226368714
0.79,0.0838889959606751
0.792,0.088
0.794,0.0928813623772117
0.796,0.0982189064207034
0.798,0.103493654385375
0.8,0.108186628526127
0.802,0.11177885109786
0.804,0.113769020525728
0.806,0.114062387150768
0.808,0.112970753229892
0.81,0.11082359719027
0.812,0.107950397459071
0.814,0.104680632463465
0.816,0.101322448742521
0.818,0.0976933594089958
0.82,0.0931202441493368
0.822,0.0869086507618899
0.824,0.0783641270450015
0.826,0.0668822379065784
0.828,0.0539289417744214
0.83,0.0429403503473251
0.832,0.0351370667089276
0.834,0.02943416821815
0.836,0.0246658413406259
0.838,0.0201113077210971
0.84,0.0154948241834132
0.842,0.010559996907037
0.844,0.00505043207143152
0.846,-0.00126930799882813
0.848,-0.00815266964158817
0.85,-0.0148711078571161
0.852,-0.0206751215005672
0.854,-0.0248404509021935
0.856,-0.0272233903194679
0.858,-0.0282607879370846
0.86,-0.0284147334148342
0.862,-0.0281473164125075
0.864,-0.0279110227506538
0.866,-0.0279374499472761
0.868,-0.0282373072178306
0.87,-0.0288116999385322
0.872,-0.0296617334855958
0.874,-0.0307885132352366
0.876,-0.0321931445636694
0.878,-0.0338708461454447
0.88,-0.0356814425168278
0.882,-0.0373493640757983
0.884,-0.0385931545186718
0.886,-0.0391313575417635
0.888,-0.0386825168413888
0.89,-0.0369941879126011
0.892,-0.0344811976214325
0.894,-0.0322256442048932
0.896,-0.0313386376987318
0.898,-0.0329312881386968
0.9,-0.0381147055605367
0.902,-0.048
0.904,-0.0626784974835354
0.906,-0.0781623880003917
0.908,-0.0894440775305174
0.91,-0.0915159720538615
0.912,-0.0793704775503728
0.914,-0.048
0.916,0.00787945198275486
0.918,0.0946574592451774
0.92,0.219
0.922,0.381817728105234
0.924,0.561000000000002
0.926,0.731376282654542
0.928,0.878557782582414
0.93,0.990851141183019
0.932,1.05656299985575
0.934,1.064
0.936,1.00488859171392
0.938,0.884634459890632
0.94,0.712063098122032
0.942,0.496
0.944,0.254558087983522
0.946,0.043
0.948,-0.0893680600355242
0.95,-0.154215339725855
0.952,-0.178454949553258
0.954,-0.189
0.956,-0.207222774035877
0.958,-0.232332244580807
0.96,-0.257996557042236
0.962,-0.277883856827612
0.964,-0.285662289344385
0.966,-0.275
0.968,-0.243436904532212
0.97,-0.204
0.972,-0.169825574630218
0.974,-0.139
0.976,-0.107510796946915
0.978,-0.078
0.98,-0.0537956915439227
0.982,-0.0343156316944211
0.984,-0.018
0.986,-0.00368003270056166
0.988,0.00824880719840165
0.99,0.0170000000000001
0.992,0.0220597302817335
0.994,0.024004999718662
0.996,0.0236855142602354
0.998,0.0219509798559031
1,0.0196511024551151
1.002,0.0176355880073211
1.004,0.0167297140094783
1.006,0.0171969035512132
1.008,0.0187387253148218
1.01,0.0210323195301075
1.012,0.0237548264268736
1.014,0.0265833862349236
1.016,0.0291951391840608
1.018,0.0312672255040886
1.02,0.0324905874761291
1.022,0.0328736145616375
1.024,0.0327421434024014
1.026,0.0324358126915276
1.028,0.0322942611221227
1.03,0.0326571273872933
1.032,0.033864050180146
1.034,0.0362546681937876
1.036,0.0401436841055604
1.038,0.0452722722302258
1.04,0.0508080785199653
1.042,0.0558938129111955
1.044,0.0596998208139116
1.046,0.0620320635304039
1.048,0.0633321182552582
1.05,0.0640691976566383
1.052,0.0647125144027081
1.054,0.0657312811616315
1.056,0.0675947106015724
1.058,0.0707720153906946
1.06,0.075707707542456
1.062,0.0822781840120751
1.064,0.0897917266965311
1.066,0.0975319168380971
1.068,0.104782335679046
1.07,0.110850674447582
1.072,0.115599154048302
1.074,0.119444525062197
1.076,0.122827648056189
1.078,0.1261893835972
1.08,0.129961074483104
1.082,0.134355154823714
1.084,0.139365150040776
1.086,0.144975067786991
1.088,0.151180214652303
1.09,0.15823577278326
1.092,0.166656799883013
1.094,0.176969652591957
1.096,0.189615019787096
1.098,0.203063231787402
1.1,0.213945376139752
1.102,0.221822535704069
1.104,0.229271456416719
1.106,0.239
1.108,0.252792250946704
1.11,0.268737184831612
1.112,0.284
1.114,0.296733016402373
1.116,0.309037040410155
1.118,0.324
1.12,0.3435530184195
1.122,0.365
1.124,0.38471751296214
1.126,0.4
1.128,0.409951929731939
1.13,0.42
1.132,0.434849768110105
1.134,0.45
1.136,0.460110519769421
1.138,0.465692175534234
1.14,0.468718571414336
1.142,0.471163311529625
1.144,0.475
1.146,0.481537130450361
1.148,0.489422754525623
1.15,0.496639813375705
1.152,0.501171248150525
1.154,0.501
1.156,0.494957174166807
1.158,0.485266532264652
1.16,0.475
1.162,0.466376167431725
1.164,0.458200282028347
1.166,0.448424255610795
1.168,0.435
1.17,0.416718057527356
1.172,0.395723492566117
1.174,0.375
1.176,0.356409315249406
1.178,0.337325335881468
1.18,0.314
1.182,0.284481119319851
1.184,0.254
1.186,0.227801351245305
1.188,0.204
1.19,0.180063475698928
1.192,0.158
1.194,0.14025968249682
1.196,0.12651949230269
1.198,0.115763113410835
1.2,0.106974229814481
1.202,0.0991530840322818
1.204,0.0916807646677251
1.206,0.084319206409132
1.208,0.0768469024702515
1.21,0.0690487177674925
1.212,0.0608560663784479
1.214,0.0523469115418942
1.216,0.0436145721538932
1.218,0.0349589980668937
1.22,0.0268867700897307
1.222,0.0199134529858649
1.224,0.0145372349964884
1.226,0.0108566443506153
1.228,0.00857054926508249
1.23,0.00736044143445785
1.232,0.00690781255330947
1.234,0.00689415431620538
1.236,0.00700095841771364
1.238,0.00691791906911415
1.24,0.0065233883660587
1.242,0.00588437628857097
1.244,0.00507609533338665
1.246,0.00417375799724118
1.248,0.00325257677687024
1.25,0.00238776416900932
1.252,0
1.254,0
1.256,0
1.258,0
1.26,0
1.262,0
1.264,0
1.266,0
1.268,0
1.27,0
1.272,0
1.274,0
1.276,0
1.278,0
1.28,0
1.282,0
1.284,0
1.286,0
1.288,0
1.29,0
1.292,0
1.294,0
1.296,0
1.298,0
1.3,0
1.302,0
1.304,0
1.306,0
1.308,0
1.31,0
1.312,0
1.314,0
1.316,0
1.318,0
1.32,0
1.322,0
1.324,0
1.326,0
1.328,0
1.33,0
1.332,0
1.334,0
1.336,0
1.338,0
1.34,0
1.342,0
1.344,0
1.346,0
1.348,0
1.35,0
1.352,0
1.354,0
1.356,0
1.358,0
1.36,0
1.362,0
1.364,0
1.366,0
1.368,0
1.37,0
1.372,0
1.374,0
1.376,0
1.378,0
1.38,0
1.382,0
1.384,0
1.386,0
1.388,0
1.39,0
1.392,0
1.394,0
1.396,0
1.398,0
1.4,0
1.402,0
1.404,0
1.406,0
1.408,0
1.41,0
1.412,0
1.414,0
1.416,0
1.418,0
1.42,0
1.422,0
1.424,0
1.426,0
1.428,0
1.43,0
1.432,0
1.434,0
1.436,0
1.438,0
1.44,0
1.442,0
1.444,0
1.446,0
1.448,0
1.45,0
1.452,0
1.454,0
1.456,0
1.458,0
1.46,0
1.462,0
1.464,0
1.466,0
1.468,0
1.47,0
1.472,0
1.474,0
1.476,0
1.478,0
1.48,0
1.482,0
1.484,0
1.486,0
1.488,0
1.49,0
1.492,0
1.494,0
1.496,0
1.498,0
1.5,0
1.502,0
1.504,0
1.506,0
1.508,0
1.51,0
1.512,0
1.514,0
1.516,0
1.518,0
1.52,0
1.522,0
1.524,0
1.526,0
1.528,0
1.53,0
1.532,0
1.534,0
1.536,0
1.538,0
1.54,0
1.542,0
1.544,0
1.546,0
1.548,0
1.55,0
1.552,0
1.554,0
1.556,0
1.558,0
1.56,0
1.562,0
1.564,0
1.566,0
1.568,0
1.57,0
1.572,0
1.574,0
1.576,0
1.578,0
1.58,0
1.582,0
1.584,0
1.586,0
1.588,0
1.59,0
1.592,0
1.594,0
1.596,0
1.598,0
1.6,0
1.602,0
1.604,0
1.606,0
1.608,0
1.61,0
1.612,0
1.614,0
1.616,0
1.618,0
1.62,0
1.622,0
1.624,0
1.626,0
1.628,0
1.63,0
1.632,0
1.634,0
1.636,0
1.638,0
1.64,0
1.642,0
1.644,0
1.646,0
1.648,0
1.65,0
1.652,0
1.654,0
1.656,0
1.658,0
1.66,0
1.662,0
1.664,0
1.666,0
1.668,0
1.67,0
1.672,0
1.674,0
1.676,0
1.678,0
1.68,0
1.682,0
1.684,0
1.686,0
1.688,0
1.69,0
1.692,0
1.694,0
1.696,-0.00708460711772357
1.698,-0.00875867789606505
1.7,-0.0097707094803553
1.702,-0.0100503433721833
1.704,-0.0095272210731378
1.706,-0.00813098408480784
1.708,-0.00579127390878231
1.71,-0.00243773204665004
1.712,0.002
1.714,0.00759228072957896
1.716,0.0144094686404979
1.718,0.0225219222311678
1.72,0.032
1.722,0.0426795580987543
1.724,0.0534584432925861
1.726,0.063
1.728,0.0703086533523926
1.73,0.0757531513327301
1.732,0.0800433226368714
1.734,0.0838889959606751
1.736,0.088
1.738,0.0928813623772117
1.74,0.0982189064207034
1.742,0.103493654385375
1.744,0.108186628526127
1.746,0.11177885109786
1.748,0.113769020525728
1.75,0.114062387150768
1.752,0.112970753229892
1.754,0.11082359719027
1.756,0.107950397459071
1.758,0.104680632463465
1.76,0.101322448742521
1.762,0.0976933594089958
1.764,0.0931202441493368
1.766,0.0869086507618899
1.768,0.0783641270450015
1.77,0.0668822379065784
1.772,0.0539289417744214
1.774,0.0429403503473251
1.776,0.0351370667089276
1.778,0.02943416821815
1.78,0.0246658413406259
1.782,0.0201113077210971
1.784,0.0154948241834132
1.786,0.010559996907037
1.788,0.00505043207143152
1.79,-0.00126930799882813
1.792,-0.00815266964158817
1.794,-0.0148711078571161
1.796,-0.0206751215005672
1.798,-0.0248404509021935
1.8,-0.0272233903194679
1.802,-0.0282607879370846
1.804,-0.0284147334148342
1.806,-0.0281473164125075
1.808,-0.0279110227506538
1.81,-0.0279374499472761
1.812,-0.0282373072178306
1.814,-0.0288116999385322
1.816,-0.0296617334855958
1.818,-0.0307885132352366
1.82,-0.0321931445636694
1.822,-0.0338708461454447
1.824,-0.0356814425168278
1.826,-0.0373493640757983
1.828,-0.0385931545186718
1.83,-0.0391313575417635
1.832,-0.0386825168413888
1.834,-0.0369941879126011
1.836,-0.0344811976214325
1.838,-0.0322256442048932
1.84,-0.0313386376987318
1.842,-0.0329312881386968
1.844,-0.0381147055605367
1.846,-0.048
1.848,-0.0626784974835354
1.85,-0.0781623880003917
1.852,-0.0894440775305174
1.854,-0.0915159720538615
1.856,-0.0793704775503728
1.858,-0.048
1.86,0.00787945198275486
1.862,0.0946574592451774
1.864,0.219
1.866,0.381817728105234
1.868,0.561000000000002
1.87,0.731376282654542
1.872,0.878557782582414
1.874,0.990851141183019
1.876,1.05656299985575
1.878,1.064
1.88,1.00488859171392
1.882,0.884634459890632
1.884,0.712063098122032
1.886,0.496
1.888,0.254558087983522
1.89,0.043
1.892,-0.0893680600355242
1.894,-0.154215339725855
1.896,-0.178454949553258
1.898,-0.189
1.9,-0.207222774035877
1.902,-0.232332244580807
1.904,-0.257996557042236
1.906,-0.277883856827612
1.908,-0.285662289344385
1.91,-0.275
1.912,-0.243436904532212
1.914,-0.204
1.916,-0.169825574630218
1.918,-0.139
1.92,-0.107510796946915
1.922,-0.078
1.924,-0.0537956915439227
1.926,-0.0343156316944211
1.928,-0.018
1.93,-0.00368003270056166
1.932,0.00824880719840165
1.934,0.0170000000000001
1.936,0.0220597302817335
1.938,0.024004999718662
1.94,0.0236855142602354
1.942,0.0219509798559031
1.944,0.0196511024551151
1.946,0.0176355880073211
1.948,0.0167297140094783
1.95,0.0171969035512132
1.952,0.0187387253148218
1.954,0.0210323195301075
1.956,0.0237548264268736
1.958,0.0265833862349236
1.96,0.0291951391840608
1.962,0.0312672255040886
1.964,0.0324905874761291
1.966,0.0328736145616375
1.968,0.0327421434024014
1.97,0.0324358126915276
1.972,0.0322942611221227
1.974,0.0326571273872933
1.976,0.033864050180146
1.978,0.0362546681937876
1.98,0.0401436841055604
1.982,0.0452722722302258
1.984,0.0508080785199653
1.986,0.0558938129111955
1.988,0.0596998208139116
1.99,0.0620320635304039
1.992,0.0633321182552582
1.994,0.0640691976566383
1.996,0.0647125144027081
1.998,0.0657312811616315
2,0.0675947106015724
2.002,0.0707720153906946
2.004,0.075707707542456
2.006,0.0822781840120751
2.008,0.0897917266965311
2.01,0.0975319168380971
2.012,0.104782335679046
2.014,0.110850674447582
2.016,0.115599154048302
2.018,0.119444525062197
2.02,0.122827648056189
2.022,0.1261893835972
2.024,0.129961074483104
2.026,0.134355154823714
2.028,0.139365150040776
2.03,0.144975067786991
2.032,0.151180214652303
2.034,0.15823577278326
2.036,0.166656799883013
2.038,0.176969652591957
2.04,0.189615019787096
2.042,0.203063231787402
2.044,0.213945376139752
2.046,0.221822535704069
2.048,0.229271456416719
2.05,0.239
2.052,0.252792250946704
2.054,0.268737184831612
2.056,0.284
2.058,0.296733016402373
2.06,0.309037040410155
2.062,0.324
2.064,0.3435530184195
2.066,0.365
2.068,0.38471751296214
2.07,0.4
2.072,0.409951929731939
2.074,0.42
2.076,0.434849768110105
2.078,0.45
2.08,0.460110519769421
2.082,0.465692175534234
2.084,0.468718571414336
2.086,0.471163311529625
2.088,0.475
2.09,0.481537130450361
2.092,0.489422754525623
2.094,0.496639813375705
2.096,0.501171248150525
2.098,0.501
2.1,0.494957174166807
2.102,0.485266532264652
2.104,0.475
2.106,0.466376167431725
2.108,0.458200282028347
2.11,0.448424255610795
2.112,0.435
2.114,0.416718057527356
2.116,0.395723492566117
2.118,0.375
2.12,0.356409315249406
2.122,0.337325335881468
2.124,0.314
2.126,0.284481119319851
2.128,0.254
2.13,0.227801351245305
2.132,0.204
2.134,0.180063475698928
2.136,0.158
2.138,0.14025968249682
2.14,0.12651949230269
2.142,0.115763113410835
2.144,0.106974229814481
2.146,0.0991530840322818
2.148,0.0916807646677251
2.15,0.084319206409132
2.152,0.0768469024702515
2.154,0.0690487177674925
2.156,0.0608560663784479
2.158,0.0523469115418942
2.16,0.0436145721538932
2.162,0.0349589980668937
2.164,0.0268867700897307
2.166,0.0199134529858649
2.168,0.0145372349964884
2.17,0.0108566443506153
2.172,0.00857054926508249
2.174,0.00736044143445785
2.176,0.00690781255330947
2.178,0.00689415431620538
2.18,0.00700095841771364
2.182,0.00691791906911415
2.184,0.0065233883660587
2.186,0.00588437628857097
2.188,0.00507609533338665
2.19,0.00417375799724118
2.192,0.00325257677687024
2.194,0.00238776416900932
2.196,0
2.198,0
2.2,0
2.202,0
2.204,0
2.206,0
2.208,0
2.21,0
2.212,0
2.214,0
2.216,0
2.218,0
2.22,0
2.222,0
2.224,0
2.226,0
2.228,0
2.23,0
2.232,0
2.234,0
2.236,0
2.238,0
2.24,0
2.242,0
2.244,0
2.246,0
2.248,0
2.25,0
2.252,0
2.254,0
2.256,0
2.258,0
2.26,0
2.262,0
2.264,0
2.266,0
2.268,0
2.27,0
2.272,0
2.274,0
2.276,0
2.278,0
2.28,0
2.282,0
2.284,0
2.286,0
2.288,0
2.29,0
2.292,0
2.294,0
2.296,0
2.298,0
2.3,0
2.302,0
2.304,0
2.306,0
2.308,0
2.31,0
2.312,0
2.314,0
2.316,0
2.318,0
2.32,0
2.322,0
2.324,0
2.326,0
2.328,0
2.33,0
2.332,0
2.334,0
2.336,0
2.338,0
2.34,0
2.342,0
2.344,0
2.346,0
2.348,0
2.35,0
2.352,0
2.354,0
2.356,0
2.358,0
2.36,0
2.362,0
2.364,0
2.366,0
2.368,0
2.37,0
2.372,0
2.374,0
2.376,0
2.378,0
2.38,0
2.382,0
2.384,0
2.386,0
2.388,0
2.39,0
2.392,0
2.394,0
2.396,0
2.398,0
2.4,0
2.402,0
2.404,0
2.406,0
2.408,0
2.41,0
2.412,0
2.414,0
2.416,0
2.418,0
2.42,0
2.422,0
2.424,0
2.426,0
2.428,0
2.43,0
2.432,0
2.434,0
2.436,0
2.438,0
2.44,0
2.442,0
2.444,0
2.446,0
2.448,0
2.45,0
2.452,0
2.454,0
2.456,0
2.458,0
2.46,0
2.462,0
2.464,0
2.466,0
2.468,0
2.47,0
2.472,0
2.474,0
2.476,0
2.478,0
2.48,0
2.482,0
2.484,0
2.486,0
2.488,0
2.49,0
2.492,0
2.494,0
2.496,0
2.498,0
2.5,0
2.502,0
2.504,0
2.506,0
2.508,0
2.51,0
2.512,0
2.514,0
2.516,0
2.518,0
2.52,0
2.522,0
2.524,0
2.526,0
2.528,0
2.53,0
2.532,0
2.534,0
2.536,0
2.538,0
2.54,0
2.542,0
2.544,0
2.546,0
2.548,0
2.55,0
2.552,0
2.554,0
2.556,0
2.558,0
2.56,0
2.562,0
2.564,0
2.566,0
2.568,0
2.57,0
2.572,0
2.574,0
2.576,0
2.578,0
2.58,0
2.582,0
2.584,0
2.586,0
2.588,0
2.59,0
2.592,0
2.594,-0.00708460711772357
2.596,-0.00875867789606505
2.598,-0.0097707094803553
2.6,-0.0100503433721833
2.602,-0.0095272210731378
2.604,-0.00813098408480784
2.606,-0.00579127390878231
2.608,-0.00243773204665004
2.61,0.002
2.612,0.00759228072957896
2.614,0.0144094686404979
2.616,0.0225219222311678
2.618,0.032
2.62,0.0426795580987543
2.622,0.0534584432925861
2.624,0.063
2.626,0.0703086533523926
2.628,0.0757531513327301
2.63,0.0800433226368714
2.632,0.0838889959606751
2.634,0.088
2.636,0.0928813623772117
2.638,0.0982189064207034
2.64,0.103493654385375
2.642,0.108186628526127
2.644,0.11177885109786
2.646,0.113769020525728
2.648,0.114062387150768
2.65,0.112970753229892
2.652,0.11082359719027
2.654,0.107950397459071
2.656,0.104680632463465
2.658,0.101322448742521
2.66,0.0976933594089958
2.662,0.0931202441493368
2.664,0.0869086507618899
2.666,0.0783641270450015
2.668,0.0668822379065784
2.67,0.0539289417744214
2.672,0.0429403503473251
2.674,0.0351370667089276
2.676,0.02943416821815
2.678,0.0246658413406259
2.68,0.0201113077210971
2.682,0.0154948241834132
2.684,0.010559996907037
2.686,0.00505043207143152
2.688,-0.00126930799882813
2.69,-0.00815266964158817
2.692,-0.0148711078571161
2.694,-0.0206751215005672
2.696,-0.0248404509021935
2.698,-0.0272233903194679
2.7,-0.0282607879370846
2.702,-0.0284147334148342
2.704,-0.0281473164125075
2.706,-0.0279110227506538
2.708,-0.0279374499472761
2.71,-0.0282373072178306
2.712,-0.0288116999385322
2.714,-0.0296617334855958
2.716,-0.0307885132352366
2.718,-0.0321931445636694
2.72,-0.0338708461454447
2.722,-0.0356814425168278
2.724,-0.0373493640757983
2.726,-0.0385931545186718
2.728,-0.0391313575417635
2.73,-0.0386825168413888
2.732,-0.0369941879126011
2.734,-0.0344811976214325
2.736,-0.0322256442048932
2.738,-0.0313386376987318
2.74,-0.0329312881386968
2.742,-0.0381147055605367
2.744,-0.048
2.746,-0.0626784974835354
2.748,-0.0781623880003917
2.75,-0.0894440775305174
2.752,-0.0915159720538615
2.754,-0.0793704775503728
2.756,-0.048
2.758,0.00787945198275486
2.76,0.0946574592451774
2.762,0.219
2.764,0.381817728105234
2.766,0.561000000000002
2.768,0.731376282654542
2.77,0.878557782582414
2.772,0.990851141183019
2.774,1.05656299985575
2.776,1.064
2.778,1.00488859171392
2.78,0.884634459890632
2.782,0.712063098122032
2.784,0.496
2.786,0.254558087983522
2.788,0.043
2.79,-0.0893680600355242
2.792,-0.154215339725855
2.794,-0.178454949553258
2.796,-0.189
2.798,-0.207222774035877
2.8,-0.232332244580807
2.802,-0.257996557042236
2.804,-0.277883856827612
2.806,-0.285662289344385
2.808,-0.275
2.81,-0.243436904532212
2.812,-0.204
2.814,-0.169825574630218
2.816,-0.139
2.818,-0.107510796946915
2.82,-0.078
2.822,-0.0537956915439227
2.824,-0.0343156316944211
2.826,-0.018
2.828,-0.00368003270056166
2.83,0.00824880719840165
2.832,0.0170000000000001
2.834,0.0220597302817335
2.836,0.024004999718662
2.838,0.0236855142602354
2.84,0.0219509798559031
2.842,0.0196511024551151
2.844,0.0176355880073211
2.846,0.0167297140094783
2.848,0.0171969035512132
2.85,0.0187387253148218
2.852,0.0210323195301075
2.854,0.0237548264268736
2.856,0.0265833862349236
2.858,0.0291951391840608
2.86,0.0312672255040886
2.862,0.0324905874761291
2.864,0.0328736145616375
2.866,0.0327421434024014
2.868,0.0324358126915276
2.87,0.0322942611221227
2.872,0.0326571273872933
2.874,0.033864050180146
2.876,0.0362546681937876
2.878,0.0401436841055604
2.88,0.0452722722302258
2.882,0.0508080785199653
2.884,0.0558938129111955
2.886,0.0596998208139116
2.888,0.0620320635304039
2.89,0.0633321182552582
2.892,0.0640691976566383
2.894,0.0647125144027081
2.896,0.0657312811616315
2.898,0.0675947106015724
2.9,0.0707720153906946
2.902,0.075707707542456
2.904,0.0822781840120751
2.906,0.0897917266965311
2.908,0.0975319168380971
2.91,0.104782335679046
2.912,0.110850674447582
2.914,0.115599154048302
2.916,0.119444525062197
2.918,0.122827648056189
2.92,0.1261893835972
2.922,0.129961074483104
2.924,0.134355154823714
2.926,0.139365150040776
2.928,0.144975067786991
2.93,0.151180214652303
2.932,0.15823577278326
2.934,0.166656799883013
2.936,0.176969652591957
2.938,0.189615019787096
2.94,0.203063231787402
2.942,0.213945376139752
2.944,0.221822535704069
2.946,0.229271456416719
2.948,0.239
2.95,0.252792250946704
2.952,0.268737184831612
2.954,0.284
2.956,0.296733016402373
2.958,0.309037040410155
2.96,0.324
2.962,0.3435530184195
2.964,0.365
2.966,0.38471751296214
2.968,0.4
2.97,0.409951929731939
2.972,0.42
2.974,0.434849768110105
2.976,0.45
2.978,0.460110519769421
2.98,0.465692175534234
2.982,0.468718571414336
2.984,0.471163311529625
2.986,0.475
2.988,0.481537130450361
2.99,0.489422754525623
2.992,0.496639813375705
2.994,0.501171248150525
2.996,0.501
2.998,0.494957174166807
3,0.485266532264652
3.002,0.475
3.004,0.466376167431725
3.006,0.458200282028347
3.008,0.448424255610795
3.01,0.435
3.012,0.416718057527356
3.014,0.395723492566117
3.016,0.375
3.018,0.356409315249406
3.02,0.337325335881468
3.022,0.314
3.024,0.284481119319851
3.026,0.254
3.028,0.227801351245305
3.03,0.204
3.032,0.180063475698928
3.034,0.158
3.036,0.14025968249682
3.038,0.12651949230269
3.04,0.115763113410835
3.042,0.106974229814481
3.044,0.0991530840322818
3.046,0.0916807646677251
3.048,0.084319206409132
3.05,0.0768469024702515
3.052,0.0690487177674925
3.054,0.0608560663784479
3.056,0.0523469115418942
3.058,0.0436145721538932
3.06,0.0349589980668937
3.062,0.0268867700897307
3.064,0.0199134529858649
3.066,0.0145372349964884
3.068,0.0108566443506153
3.07,0.00857054926508249
3.072,0.00736044143445785
3.074,0.00690781255330947
3.076,0.00689415431620538
3.078,0.00700095841771364
3.08,0.00691791906911415
3.082,0.0065233883660587
3.084,0.00588437628857097
3.086,0.00507609533338665
3.088,0.00417375799724118
3.09,0.00325257677687024
3.092,0.00238776416900932
3.094,0
3.096,0
3.098,0
3.1,0
3.102,0
3.104,0
3.106,0
3.108,0
3.11,0
3.112,0
3.114,0
3.116,0
3.118,0
3.12,0
3.122,0
3.124,0
3.126,0
3.128,0
3.13,0
3.132,0
3.134,0
3.136,0
3.138,0
3.14,0
3.142,0
3.144,0
3.146,0
3.148,0
3.15,0
3.152,0
3.154,0
3.156,0
3.158,0
3.16,0
3.162,0
3.164,0
3.166,0
3.168,0
3.17,0
3.172,0
3.174,0
3.176,0
3.178,0
3.18,0
3.182,0
3.184,0
3.186,0
3.188,0
3.19,0
3.192,0
3.194,0
3.196,0
3.198,0
3.2,0
3.202,0
3.204,0
3.206,0
3.208,0
3.21,0
3.212,0
3.214,0
3.216,0
3.218,0
3.22,0
3.222,0
3.224,0
3.226,0
3.228,0
3.23,0
3.232,0
3.234,0
3.236,0
3.238,0
3.24,0
3.242,0
3.244,0
3.246,0
3.248,0
3.25,0
3.252,0
3.254,0
3.256,0
3.258,0
3.26,0
3.262,0
3.264,0
3.266,0
3.268,0
3.27,0
3.272,0
3.274,0
3.276,0
3.278,0
3.28,0
3.282,0
3.284,0
3.286,0
3.288,0
3.29,0
3.292,0
3.294,0
3.296,0
3.298,0
3.3,0
3.302,0
3.304,0
3.306,0
3.308,0
3.31,0
3.312,0
3.314,0
3.316,0
3.318,0
3.32,0
3.322,0
3.324,0
3.326,0
3.328,0
3.33,0
3.332,0
3.334,0
3.336,0
3.338,0
3.34,0
3.342,0
3.344,0
3.346,0
3.348,0
3.35,0
3.352,0
3.354,0
3.356,0
3.358,0
3.36,0
3.362,0
3.364,0
3.366,0
3.368,0
3.37,0
3.372,0
3.374,0
3.376,0
3.378,0
3.38,0
3.382,0
3.384,0
3.386,0
3.388,0
3.39,0
3.392,0
3.394,0
3.396,0
3.398,0
3.4,0
3.402,0
3.404,0
3.406,0
3.408,0
3.41,0
3.412,0
3.414,0
3.416,0
3.418,0
3.42,0
3.422,0
3.424,0
3.426,0
3.428,0
3.43,0
3.432,0
3.434,0
3.436,0
3.438,0
3.44,0
3.442,0
3.444,0
3.446,0
3.448,0
3.45,0
3.452,0
3.454,0
3.456,-0.00708460711772357
3.458,-0.00875867789606505
3.46,-0.0097707094803553
3.462,-0.0100503433721833
3.464,-0.0095272210731378
3.466,-0.00813098408480784
3.468,-0.00579127390878231
3.47,-0.00243773204665004
3.472,0.002
3.474,0.00759228072957896
3.476,0.0144094686404979
3.478,0.0225219222311678
3.48,0.032
3.482,0.0426795580987543
3.484,0.0534584432925861
3.486,0.063
3.488,0.0703086533523926
3.49,0.0757531513327301
3.492,0.0800433226368714
3.494,0.0838889959606751
3.496,0.088
3.498,0.0928813623772117
3.5,0.0982189064207034
3.502,0.103493654385375
3.504,0.108186628526127
3.506,0.11177885109786
3.508,0.113769020525728
3.51,0.114062387150768
3.512,0.112970753229892
3.514,0.11082359719027
3.516,0.107950397459071
3.518,0.104680632463465
3.52,0.101322448742521
3.522,0.0976933594089958
3.524,0.0931202441493368
3.526,0.0869086507618899
3.528,0.0783641270450015
3.53,0.0668822379065784
3.532,0.0539289417744214
3.534,0.0429403503473251
3.536,0.0351370667089276
3.538,0.02943416821815
3.54,0.0246658413406259
3.542,0.0201113077210971
3.544,0.0154948241834132
3.546,0.010559996907037
3.548,0.00505043207143152
3.55,-0.00126930799882813
3.552,-0.00815266964158817
3.554,-0.0148711078571161
3.556,-0.0206751215005672
3.558,-0.0248404509021935
3.56,-0.0272233903194679
3.562,-0.0282607879370846
3.564,-0.0284147334148342
3.566,-0.0281473164125075
3.568,-0.0279110227506538
3.57,-0.0279374499472761
3.572,-0.0282373072178306
3.574,-0.0288116999385322
3.576,-0.0296617334855958
3.578,-0.0307885132352366
3.58,-0.0321931445636694
3.582,-0.0338708461454447
3.584,-0.0356814425168278
3.586,-0.0373493640757983
3.588,-0.0385931545186718
3.59,-0.0391313575417635
3.592,-0.0386825168413888
3.594,-0.0369941879126011
3.596,-0.0344811976214325
3.598,-0.0322256442048932
3.6,-0.0313386376987318
3.602,-0.0329312881386968
3.604,-0.0381147055605367
3.606,-0.048
3.608,-0.0626784974835354
3.61,-0.0781623880003917
3.612,-0.0894440775305174
3.614,-0.0915159720538615
3.616,-0.0793704775503728
3.618,-0.048
3.62,0.00787945198275486
3.622,0.0946574592451774
3.624,0.219
3.626,0.381817728105234
3.628,0.561000000000002
3.63,0.731376282654542
3.632,0.878557782582414
3.634,0.990851141183019
3.636,1.05656299985575
3.638,1.064
3.64,1.00488859171392
3.642,0.884634459890632
3.644,0.712063098122032
3.646,0.496
3.648,0.254558087983522
3.65,0.043
3.652,-0.0893680600355242
3.654,-0.154215339725855
3.656,-0.178454949553258
3.658,-0.189
3.66,-0.207222774035877
3.662,-0.232332244580807
3.664,-0.257996557042236
3.666,-0.277883856827612
3.668,-0.285662289344385
3.67,-0.275
3.672,-0.243436904532212
3.674,-0.204
3.676,-0.169825574630218
3.678,-0.139
3.68,-0.107510796946915
3.682,-0.078
3.684,-0.0537956915439227
3.686,-0.0343156316944211
3.688,-0.018
3.69,-0.00368003270056166
3.692,0.00824880719840165
3.694,0.0170000000000001
3.696,0.0220597302817335
3.698,0.024004999718662
3.7,0.0236855142602354
3.702,0.0219509798559031
3.704,0.0196511024551151
3.706,0.0176355880073211
3.708,0.0167297140094783
3.71,0.0171969035512132
3.712,0.0187387253148218
3.714,0.0210323195301075
3.716,0.0237548264268736
3.718,0.0265833862349236
3.72,0.0291951391840608
3.722,0.0312672255040886
3.724,0.0324905874761291
3.726,0.0328736145616375
3.728,0.0327421434024014
3.73,0.0324358126915276
3.732,0.0322942611221227
3.734,0.0326571273872933
3.736,0.033864050180146
3.738,0.0362546681937876
3.74,0.0401436841055604
3.742,0.0452722722302258
3.744,0.0508080785199653
3.746,0.0558938129111955
3.748,0.0596998208139116
3.75,0.0620320635304039
3.752,0.0633321182552582
3.754,0.0640691976566383
3.756,0.0647125144027081
3.758,0.0657312811616315
3.76,0.0675947106015724
3.762,0.0707720153906946
3.764,0.075707707542456
3.766,0.0822781840120751
3.768,0.0897917266965311
3.77,0.0975319168380971
3.772,0.104782335679046
3.774,0.110850674447582
3.776,0.115599154048302
3.778,0.119444525062197
3.78,0.122827648056189
3.782,0.1261893835972
3.784,0.129961074483104
3.786,0.134355154823714
3.788,0.139365150040776
3.79,0.144975067786991
3.792,0.151180214652303
3.794,0.15823577278326
3.796,0.166656799883013
3.798,0.176969652591957
3.8,0.189615019787096
3.802,0.203063231787402
3.804,0.213945376139752
3.806,0.221822535704069
3.808,0.229271456416719
3.81,0.239
3.812,0.252792250946704
3.814,0.268737184831612
3.816,0.284
3.818,0.296733016402373
3.82,0.309037040410155
3.822,0.324
3.824,0.3435530184195
3.826,0.365
3.828,0.38471751296214
3.83,0.4
3.832,0.409951929731939
3.834,0.42
3.836,0.434849768110105
3.838,0.45
3.84,0.460110519769421
3.842,0.465692175534234
3.844,0.468718571414336
3.846,0.471163311529625
3.848,0.475
3.85,0.481537130450361
3.852,0.489422754525623
3.854,0.496639813375705
3.856,0.501171248150525
3.858,0.501
3.86,0.494957174166807
3.862,0.485266532264652
3.864,0.475
3.866,0.466376167431725
3.868,0.458200282028347
3.87,0.448424255610795
3.872,0.435
3.874,0.416718057527356
3.876,0.395723492566117
3.878,0.375
3.88,0.356409315249406
3.882,0.337325335881468
3.884,0.314
3.886,0.284481119319851
3.888,0.254
3.89,0.227801351245305
3.892,0.204
3.894,0.180063475698928
3.896,0.158
3.898,0.14025968249682
3.9,0.12651949230269
3.902,0.115763113410835
3.904,0.106974229814481
3.906,0.0991530840322818
3.908,0.0916807646677251
3.91,0.084319206409132
3.912,0.0768469024702515
3.914,0.0690487177674925
3.916,0.0608560663784479
3.918,0.0523469115418942
3.92,0.0436145721538932
3.922,0.0349589980668937
3.924,0.0268867700897307
3.926,0.0199134529858649
3.928,0.0145372349964884
3.93,0.0108566443506153
3.932,0.00857054926508249
3.934,0.00736044143445785
3.936,0.00690781255330947
3.938,0.00689415431620538
3.94,0.00700095841771364
3.942,0.00691791906911415
3.944,0.0065233883660587
3.946,0.00588437628857097
3.948,0.00507609533338665
3.95,0.00417375799724118
3.952,0.00325257677687024
3.954,0.00238776416900932
3.956,0
3.958,0
3.96,0
3.962,0
3.964,0
3.966,0
3.968,0
3.97,0
3.972,0
3.974,0
3.976,0
3.978,0
3.98,0
3.982,0
3.984,0
3.986,0
3.988,0
3.99,0
3.992,0
3.994,0
3.996,0
3.998,0
4,0
4.002,0
4.004,0
4.006,0
4.008,0
4.01,0
4.012,0
4.014,0
4.016,0
4.018,0
4.02,0
4.022,0
4.024,0
4.026,0
4.028,0
4.03,0
4.032,0
4.034,0
4.036,0
4.038,0
4.04,0
4.042,0
4.044,0
4.046,0
4.048,0
4.05,0
4.052,0
4.054,0
4.056,0
4.058,0
4.06,0
4.062,0
4.064,0
4.066,0
4.068,0
4.07,0
4.072,0
4.074,0
4.076,0
4.078,0
4.08,0
4.082,0
4.084,0
4.086,0
4.088,0
4.09,0
4.092,0
4.094,0
4.096,0
4.098,0
4.1,0
4.102,0
4.104,0
4.106,0
4.108,0
4.11,0
4.112,0
4.114,0
4.116,0
4.118,0
4.12,0
4.122,0
4.124,0
4.126,0
4.128,0
4.13,0
4.132,0
4.134,0
4.136,0
4.138,0
4.14,0
4.142,0
4.144,0
4.146,0
4.148,0
4.15,0
4.152,0
4.154,0
4.156,0
4.158,0
4.16,0
4.162,0
4.164,0
4.166,0
4.168,0
4.17,0
4.172,0
4.174,0
4.176,0
4.178,0
4.18,0
4.182,0
4.184,0
4.186,0
4.188,0
4.19,0
4.192,0
4.194,0
4.196,0
4.198,0
4.2,0
4.202,0
4.204,0
4.206,0
4.208,0
4.21,0
4.212,0
4.214,0
4.216,0
4.218,0
4.22,0
4.222,0
4.224,0
4.226,0
4.228,0
4.23,0
4.232,0
4.234,0
4.236,0
4.238,0
4.24,0
4.242,0
4.244,0
4.246,0
4.248,0
4.25,0
4.252,0
4.254,0
4.256,0
4.258,0
4.26,0
4.262,0
4.264,0
4.266,0
4.268,0
4.27,0
4.272,0
4.274,0
4.276,0
4.278,0
4.28,0
4.282,0
4.284,0
4.286,0
4.288,-0.00708460711772357
4.29,-0.00875867789606505
4.292,-0.0097707094803553
4.294,-0.0100503433721833
4.296,-0.0095272210731378
4.298,-0.00813098408480784
4.3,-0.00579127390878231
4.302,-0.00243773204665004
4.304,0.002
4.306,0.00759228072957896
4.308,0.0144094686404979
4.31,0.0225219222311678
4.312,0.032
4.314,0.0426795580987543
4.316,0.0534584432925861
4.318,0.063
4.32,0.0703086533523926
4.322,0.0757531513327301
4.324,0.0800433226368714
4.326,0.0838889959606751
4.328,0.088
4.33,0.0928813623772117
4.332,0.0982189064207034
4.334,0.103493654385375
4.336,0.108186628526127
4.338,0.11177885109786
4.34,0.113769020525728
4.342,0.114062387150768
4.344,0.112970753229892
4.346,0.11082359719027
4.348,0.107950397459071
4.35,0.104680632463465
4.352,0.101322448742521
4.354,0.0976933594089958
4.356,0.0931202441493368
4.358,0.0869086507618899
4.36,0.0783641270450015
4.362,0.0668822379065784
4.364,0.0539289417744214
4.366,0.0429403503473251
4.368,0.0351370667089276
4.37,0.02943416821815
4.372,0.0246658413406259
4.374,0.0201113077210971
4.376,0.0154948241834132
4.378,0.010559996907037
4.38,0.00505043207143152
4.382,-0.00126930799882813
4.384,-0.00815266964158817
4.386,-0.0148711078571161
4.388,-0.0206751215005672
4.39,-0.0248404509021935
4.392,-0.0272233903194679
4.394,-0.0282607879370846
4.396,-0.0284147334148342
4.398,-0.0281473164125075
4.4,-0.0279110227506538
4.402,-0.0279374499472761
4.404,-0.0282373072178306
4.406,-0.0288116999385322
4.408,-0.0296617334855958
4.41,-0.0307885132352366
4.412,-0.0321931445636694
4.414,-0.0338708461454447
4.416,-0.0356814425168278
4.418,-0.0373493640757983
4.42,-0.0385931545186718
4.422,-0.0391313575417635
4.424,-0.0386825168413888
4.426,-0.0369941879126011
4.428,-0.0344811976214325
4.43,-0.0322256442048932
4.432,-0.0313386376987318
4.434,-0.0329312881386968
4.436,-0.0381147055605367
4.438,-0.048
4.44,-0.0626784974835354
4.442,-0.0781623880003917
4.444,-0.0894440775305174
4.446,-0.0915159720538615
4.448,-0.0793704775503728
4.45,-0.048
4.452,0.00787945198275486
4.454,0.0946574592451774
4.456,0.219
4.458,0.381817728105234
4.46,0.561000000000002
4.462,0.731376282654542
4.464,0.878557782582414
4.466,0.990851141183019
4.468,1.05656299985575
4.47,1.064
4.472,1.00488859171392
4.474,0.884634459890632
4.476,0.712063098122032
4.478,0.496
4.48,0.254558087983522
4.482,0.043
4.484,-0.0893680600355242
4.486,-0.154215339725855
4.488,-0.178454949553258
4.49,-0.189
4.492,-0.207222774035877
4.494,-0.232332244580807
4.496,-0.257996557042236
4.498,-0.277883856827612
4.5,-0.285662289344385
4.502,-0.275
4.504,-0.243436904532212
4.506,-0.204
4.508,-0.169825574630218
4.51,-0.139
4.512,-0.107510796946915
4.514,-0.078
4.516,-0.0537956915439227
4.518,-0.0343156316944211
4.52,-0.018
4.522,-0.00368003270056166
4.524,0.00824880719840165
4.526,0.0170000000000001
4.528,0.0220597302817335
4.53,0.024004999718662
4.532,0.0236855142602354
4.534,0.0219509798559031
4.536,0.0196511024551151
4.538,0.0176355880073211
4.54,0.0167297140094783
4.542,0.0171969035512132
4.544,0.0187387253148218
4.546,0.0210323195301075
4.548,0.0237548264268736
4.55,0.0265833862349236
4.552,0.0291951391840608
4.554,0.0312672255040886
4.556,0.0324905874761291
4.558,0.0328736145616375
4.56,0.0327421434024014
4.562,0.0324358126915276
4.564,0.0322942611221227
4.566,0.0326571273872933
4.568,0.033864050180146
4.57,0.0362546681937876
4.572,0.0401436841055604
4.574,0.0452722722302258
4.576,0.0508080785199653
4.578,0.0558938129111955
4.58,0.0596998208139116
4.582,0.0620320635304039
4.584,0.0633321182552582
4.586,0.0640691976566383
4.588,0.0647125144027081
4.59,0.0657312811616315
4.592,0.0675947106015724
4.594,0.0707720153906946
4.596,0.075707707542456
4.598,0.0822781840120751
4.6,0.0897917266965311
4.602,0.0975319168380971
4.604,0.104782335679046
4.606,0.110850674447582
4.608,0.115599154048302
4.61,0.119444525062197
4.612,0.122827648056189
4.614,0.1261893835972
4.616,0.129961074483104
4.618,0.134355154823714
4.62,0.139365150040776
4.622,0.144975067786991
4.624,0.151180214652303
4.626,0.15823577278326
4.628,0.166656799883013
4.63,0.176969652591957
4.632,0.189615019787096
4.634,0.203063231787402
4.636,0.213945376139752
4.638,0.221822535704069
4.64,0.229271456416719
4.642,0.239
4.644,0.252792250946704
4.646,0.268737184831612
4.648,0.284
4.65,0.296733016402373
4.652,0.309037040410155
4.654,0.324
4.656,0.3435530184195
4.658,0.365
4.66,0.38471751296214
4.662,0.4
4.664,0.409951929731939
4.666,0.42
4.668,0.434849768110105
4.67,0.45
4.672,0.460110519769421
4.674,0.465692175534234
4.676,0.468718571414336
4.678,0.471163311529625
4.68,0.475
4.682,0.481537130450361
4.684,0.489422754525623
4.686,0.496639813375705
4.688,0.501171248150525
4.69,0.501
4.692,0.494957174166807
4.694,0.485266532264652
4.696,0.475
4.698,0.466376167431725
4.7,0.458200282028347
4.702,0.448424255610795
4.704,0.435
4.706,0.416718057527356
4.708,0.395723492566117
4.71,0.375
4.712,0.356409315249406
4.714,0.337325335881468
4.716,0.314
4.718,0.284481119319851
4.72,0.254
4.722,0.227801351245305
4.724,0.204
4.726,0.180063475698928
4.728,0.158
4.73,0.14025968249682
4.732,0.12651949230269
4.734,0.115763113410835
4.736,0.106974229814481
4.738,0.0991530840322818
4.74,0.0916807646677251
4.742,0.084319206409132
4.744,0.0768469024702515
4.746,0.0690487177674925
4.748,0.0608560663784479
4.75,0.0523469115418942
4.752,0.0436145721538932
4.754,0.0349589980668937
4.756,0.0268867700897307
4.758,0.0199134529858649
4.76,0.0145372349964884
4.762,0.0108566443506153
4.764,0.00857054926508249
4.766,0.00736044143445785
4.768,0.00690781255330947
4.77,0.00689415431620538
4.772,0.00700095841771364
4.774,0.00691791906911415
4.776,0.0065233883660587
4.778,0.00588437628857097
4.78,0.00507609533338665
4.782,0.00417375799724118
4.784,0.00325257677687024
4.786,0.00238776416900932
4.788,0
4.79,0
4.792,0
4.794,0
4.796,0
4.798,0
4.8,0
4.802,0
4.804,0
4.806,0
4.808,0
4.81,0
4.812,0
4.814,0
4.816,0
4.818,0
4.82,0
4.822,0
4.824,0
4.826,0
4.828,0
4.83,0
4.832,0
4.834,0
4.836,0
4.838,0
4.84,0
4.842,0
4.844,0
4.846,0
4.848,0
4.85,0
4.852,0
4.854,0
4.856,0
4.858,0
4.86,0
4.862,0
4.864,0
4.866,0
4.868,0
4.87,0
4.872,0
4.874,0
4.876,0
4.878,0
4.88,0
4.882,0
4.884,0
4.886,0
4.888,0
4.89,0
4.892,0
4.894,0
4.896,0
4.898,0
4.9,0
4.902,0
4.904,0
4.906,0
4.908,0
4.91,0
4.912,0
4.914,0
4.916,0
4.918,0
4.92,0
4.922,0
4.924,0
4.926,0
4.928,0
4.93,0
4.932,0
4.934,0
4.936,0
4.938,0
4.94,0
4.942,0
4.944,0
4.946,0
4.948,0
4.95,0
4.952,0
4.954,0
4.956,0
4.958,0
4.96,0
4.962,0
4.964,0
4.966,0
4.968,0
4.97,0
4.972,0
4.974,0
4.976,0
4.978,0
4.98,0
4.982,0
4.984,0
4.986,0
4.988,0
4.99,0
4.992,0
4.994,0
4.996,0
4.998,0
5,0
5.002,0
5.004,0
5.006,0
5.008,0
5.01,0
5.012,0
5.014,0
5.016,0
5.018,0
5.02,0
5.022,0
5.024,0
5.026,0
5.028,0
5.03,0
5.032,0
5.034,0
5.036,0
5.038,0
5.04,0
5.042,0
5.044,0
5.046,0
5.048,0
5.05,0
5.052,0
5.054,0
5.056,0
5.058,0
5.06,0
5.062,0
5.064,0
5.066,0
5.068,0
5.07,0
5.072,0
5.074,0
5.076,0
5.078,0
5.08,0
5.082,0
5.084,0
5.086,0
5.088,0
5.09,0
5.092,0
5.094,-0.00708460711772357
5.096,-0.00875867789606505
5.098,-0.0097707094803553
5.1,-0.0100503433721833
5.102,-0.0095272210731378
5.104,-0.00813098408480784
5.106,-0.00579127390878231
5.108,-0.00243773204665004
5.11,0.002
5.112,0.00759228072957896
5.114,0.0144094686404979
5.116,0.0225219222311678
5.118,0.032
5.12,0.0426795580987543
5.122,0.0534584432925861
5.124,0.063
5.126,0.0703086533523926
5.128,0.0757531513327301
5.13,0.0800433226368714
5.132,0.0838889959606751
5.134,0.088
5.136,0.0928813623772117
5.138,0.0982189064207034
5.14,0.103493654385375
5.142,0.108186628526127
5.144,0.11177885109786
5.146,0.113769020525728
5.148,0.114062387150768
5.15,0.112970753229892
5.152,0.11082359719027
5.154,0.107950397459071
5.156,0.104680632463465
5.158,0.101322448742521
5.16,0.0976933594089958
5.162,0.0931202441493368
5.164,0.0869086507618899
5.166,0.0783641270450015
5.168,0.0668822379065784
5.17,0.0539289417744214
5.172,0.0429403503473251
5.174,0.0351370667089276
5.176,0.02943416821815
5.178,0.0246658413406259
5.18,0.0201113077210971
5.182,0.0154948241834132
5.184,0.010559996907037
5.186,0.00505043207143152
5.188,-0.00126930799882813
5.19,-0.00815266964158817
5.192,-0.0148711078571161
5.194,-0.0206751215005672
5.196,-0.0248404509021935
5.198,-0.0272233903194679
5.2,-0.0282607879370846
5.202,-0.0284147334148342
5.204,-0.0281473164125075
5.206,-0.0279110227506538
5.208,-0.0279374499472761
5.21,-0.0282373072178306
5.212,-0.0288116999385322
5.214,-0.0296617334855958
5.216,-0.0307885132352366
5.218,-0.0321931445636694
5.22,-0.0338708461454447
5.222,-0.0356814425168278
5.224,-0.0373493640757983
5.226,-0.0385931545186718
5.228,-0.0391313575417635
5.23,-0.0386825168413888
5.232,-0.0369941879126011
5.234,-0.0344811976214325
5.236,-0.0322256442048932
5.238,-0.0313386376987318
5.24,-0.0329312881386968
5.242,-0.0381147055605367
5.244,-0.048
5.246,-0.0626784974835354
5.248,-0.0781623880003917
5.25,-0.0894440775305174
5.252,-0.0915159720538615
5.254,-0.0793704775503728
5.256,-0.048
5.258,0.00787945198275486
5.26,0.0946574592451774
5.262,0.219
5.264,0.381817728105234
5.266,0.561000000000002
5.268,0.731376282654542
5.27,0.878557782582414
5.272,0.990851141183019
5.274,1.05656299985575
5.276,1.064
5.278,1.00488859171392
5.28,0.884634459890632
5.282,0.712063098122032
5.284,0.496
5.286,0.254558087983522
5.288,0.043
5.29,-0.0893680600355242
5.292,-0.154215339725855
5.294,-0.178454949553258
5.296,-0.189
5.298,-0.207222774035877
5.3,-0.232332244580807
5.302,-0.257996557042236
5.304,-0.277883856827612
5.306,-0.285662289344385
5.308,-0.275
5.31,-0.243436904532212
5.312,-0.204
5.314,-0.169825574630218
5.316,-0.139
5.318,-0.107510796946915
5.32,-0.078
5.322,-0.0537956915439227
5.324,-0.0343156316944211
5.326,-0.018
5.328,-0.00368003270056166
5.33,0.00824880719840165
5.332,0.0170000000000001
5.334,0.0220597302817335
5.336,0.024004999718662
5.338,0.0236855142602354
5.34,0.0219509798559031
5.342,0.0196511024551151
5.344,0.0176355880073211
5.346,0.0167297140094783
5.348,0.0171969035512132
5.35,0.0187387253148218
5.352,0.0210323195301075
5.354,0.0237548264268736
5.356,0.0265833862349236
5.358,0.0291951391840608
5.36,0.0312672255040886
5.362,0.0324905874761291
5.364,0.0328736145616375
5.366,0.0327421434024014
5.368,0.0324358126915276
5.37,0.0322942611221227
5.372,0.0326571273872933
5.374,0.033864050180146
5.376,0.0362546681937876
5.378,0.0401436841055604
5.38,0.0452722722302258
5.382,0.0508080785199653
5.384,0.0558938129111955
5.386,0.0596998208139116
5.388,0.0620320635304039
5.39,0.0633321182552582
5.392,0.0640691976566383
5.394,0.0647125144027081
5.396,0.0657312811616315
5.398,0.0675947106015724
5.4,0.0707720153906946
5.402,0.075707707542456
5.404,0.0822781840120751
5.406,0.0897917266965311
5.408,0.0975319168380971
5.41,0.104782335679046
5.412,0.110850674447582
5.414,0.115599154048302
5.416,0.119444525062197
5.418,0.122827648056189
5.42,0.1261893835972
5.422,0.129961074483104
5.424,0.134355154823714
5.426,0.139365150040776
5.428,0.144975067786991
5.43,0.151180214652303
5.432,0.15823577278326
5.434,0.166656799883013
5.436,0.176969652591957
5.438,0.189615019787096
5.44,0.203063231787402
5.442,0.213945376139752
5.444,0.221822535704069
5.446,0.229271456416719
5.448,0.239
5.45,0.252792250946704
5.452,0.268737184831612
5.454,0.284
5.456,0.296733016402373
5.458,0.309037040410155
5.46,0.324
5.462,0.3435530184195
5.464,0.365
5.466,0.38471751296214
5.468,0.4
5.47,0.409951929731939
5.472,0.42
5.474,0.434849768110105
5.476,0.45
5.478,0.460110519769421
5.48,0.465692175534234
5.482,0.468718571414336
5.484,0.471163311529625
5.486,0.475
5.488,0.481537130450361
5.49,0.489422754525623
5.492,0.496639813375705
5.494,0.501171248150525
5.496,0.501
5.498,0.494957174166807
5.5,0.485266532264652
5.502,0.475
5.504,0.466376167431725
5.506,0.458200282028347
5.508,0.448424255610795
5.51,0.435
5.512,0.416718057527356
5.514,0.395723492566117
5.516,0.375
5.518,0.356409315249406
5.52,0.337325335881468
5.522,0.314
5.524,0.284481119319851
5.526,0.254
5.528,0.227801351245305
5.53,0.204
5.532,0.180063475698928
5.534,0.158
5.536,0.14025968249682
5.538,0.12651949230269
5.54,0.115763113410835
5.542,0.106974229814481
5.544,0.0991530840322818
5.546,0.0916807646677251
5.548,0.084319206409132
5.55,0.0768469024702515
5.552,0.0690487177674925
5.554,0.0608560663784479
5.556,0.0523469115418942
5.558,0.0436145721538932
5.56,0.0349589980668937
5.562,0.0268867700897307
5.564,0.0199134529858649
5.566,0.0145372349964884
5.568,0.0108566443506153
5.57,0.00857054926508249
5.572,0.00736044143445785
5.574,0.00690781255330947
5.576,0.00689415431620538
5.578,0.00700095841771364
5.58,0.00691791906911415
5.582,0.0065233883660587
5.584,0.00588437628857097
5.586,0.00507609533338665
5.588,0.00417375799724118
5.59,0.00325257677687024
5.592,0.00238776416900932
5.594,0
5.596,0
5.598,0
5.6,0
5.602,0
5.604,0
5.606,0
5.608,0
5.61,0
5.612,0
5.614,0
5.616,0
5.618,0
5.62,0
5.622,0
5.624,0
5.626,0
5.628,0
5.63,0
5.632,0
5.634,0
5.636,0
5.638,0
5.64,0
5.642,0
5.644,0
5.646,0
5.648,0
5.65,0
5.652,0
5.654,0
5.656,0
5.658,0
5.66,0
5.662,0
5.664,0
5.666,0
5.668,0
5.67,0
5.672,0
5.674,0
5.676,0
5.678,0
5.68,0
5.682,0
5.684,0
5.686,0
5.688,0
5.69,0
5.692,0
5.694,0
5.696,0
5.698,0
5.7,0
5.702,0
5.704,0
5.706,0
5.708,0
5.71,0
5.712,0
5.714,0
5.716,0
5.718,0
5.72,0
5.722,0
5.724,0
5.726,0
5.728,0
5.73,0
5.732,0
5.734,0
5.736,0
5.738,0
5.74,0
5.742,0
5.744,0
5.746,0
5.748,0
5.75,0
5.752,0
5.754,0
5.756,0
5.758,0
5.76,0
5.762,0
5.764,0
5.766,0
5.768,0
5.77,0
5.772,0
5.774,0
5.776,0
5.778,0
5.78,0
5.782,0
5.784,0
5.786,0
5.788,0
5.79,0
5.792,0
5.794,0
5.796,0
5.798,0
5.8,0
5.802,0
5.804,0
5.806,0
5.808,0
5.81,0
5.812,0
5.814,0
5.816,0
5.818,0
5.82,0
5.822,0
5.824,0
5.826,0
5.828,0
5.83,0
5.832,0
5.834,0
5.836,0
5.838,0
5.84,0
5.842,0
5.844,0
5.846,0
5.848,0
5.85,0
5.852,0
5.854,0
5.856,0
5.858,0
5.86,0
5.862,0
5.864,0
5.866,0
5.868,0
5.87,0
5.872,0
5.874,0
5.876,0
5.878,0
5.88,-0.00708460711772357
5.882,-0.00875867789606505
5.884,-0.0097707094803553
5.886,-0.0100503433721833
5.888,-0.0095272210731378
5.89,-0.00813098408480784
5.892,-0.00579127390878231
5.894,-0.00243773204665004
5.896,0.002
5.898,0.00759228072957896
5.9,0.0144094686404979
5.902,0.0225219222311678
5.904,0.032
5.906,0.0426795580987543
5.908,0.0534584432925861
5.91,0.063
5.912,0.0703086533523926
5.914,0.0757531513327301
5.916,0.0800433226368714
5.918,0.0838889959606751
5.92,0.088
5.922,0.0928813623772117
5.924,0.0982189064207034
5.926,0.103493654385375
5.928,0.108186628526127
5.93,0.11177885109786
5.932,0.113769020525728
5.934,0.114062387150768
5.936,0.112970753229892
5.938,0.11082359719027
5.94,0.107950397459071
5.942,0.104680632463465
5.944,0.101322448742521
5.946,0.0976933594089958
5.948,0.0931202441493368
5.95,0.0869086507618899
5.952,0.0783641270450015
5.954,0.0668822379065784
5.956,0.0539289417744214
5.958,0.0429403503473251
5.96,0.0351370667089276
5.962,0.02943416821815
5.964,0.0246658413406259
5.966,0.0201113077210971
5.968,0.0154948241834132
5.97,0.010559996907037
5.972,0.00505043207143152
5.974,-0.00126930799882813
5.976,-0.00815266964158817
5.978,-0.0148711078571161
5.98,-0.0206751215005672
5.982,-0.0248404509021935
5.984,-0.0272233903194679
5.986,-0.0282607879370846
5.988,-0.0284147334148342
5.99,-0.0281473164125075
5.992,-0.0279110227506538
5.994,-0.0279374499472761
5.996,-0.0282373072178306
5.998,-0.0288116999385322
6,-0.0296617334855958
6.002,-0.0307885132352366
6.004,-0.0321931445636694
6.006,-0.0338708461454447
6.008,-0.0356814425168278
6.01,-0.0373493640757983
6.012,-0.0385931545186718
6.014,-0.0391313575417635
6.016,-0.0386825168413888
6.018,-0.0369941879126011
6.02,-0.0344811976214325
6.022,-0.0322256442048932
6.024,-0.0313386376987318
6.026,-0.0329312881386968
6.028,-0.0381147055605367
6.03,-0.048
6.032,-0.0626784974835354
6.034,-0.0781623880003917
6.036,-0.0894440775305174
6.038,-0.0915159720538615
6.04,-0.0793704775503728
6.042,-0.048
6.044,0.00787945198275486
6.046,0.0946574592451774
6.048,0.219
6.05,0.381817728105234
6.052,0.561000000000002
6.054,0.731376282654542
6.056,0.878557782582414
6.058,0.990851141183019
6.06,1.05656299985575
6.062,1.064
6.064,1.00488859171392
6.066,0.884634459890632
6.068,0.712063098122032
6.07,0.496
6.072,0.254558087983522
6.074,0.043
6.076,-0.0893680600355242
6.078,-0.154215339725855
6.08,-0.178454949553258
6.082,-0.189
6.084,-0.207222774035877
6.086,-0.232332244580807
6.088,-0.257996557042236
6.09,-0.277883856827612
6.092,-0.285662289344385
6.094,-0.275
6.096,-0.243436904532212
6.098,-0.204
6.1,-0.169825574630218
6.102,-0.139
6.104,-0.107510796946915
6.106,-0.078
6.108,-0.0537956915439227
6.11,-0.0343156316944211
6.112,-0.018
6.114,-0.00368003270056166
6.116,0.00824880719840165
6.118,0.0170000000000001
6.12,0.0220597302817335
6.122,0.024004999718662
6.124,0.0236855142602354
6.126,0.0219509798559031
6.128,0.0196511024551151
6.13,0.0176355880073211
6.132,0.0167297140094783
6.134,0.0171969035512132
6.136,0.0187387253148218
6.138,0.0210323195301075
6.14,0.0237548264268736
6.142,0.0265833862349236
6.144,0.0291951391840608
6.146,0.0312672255040886
6.148,0.0324905874761291
6.15,0.0328736145616375
6.152,0.0327421434024014
6.154,0.0324358126915276
6.156,0.0322942611221227
6.158,0.0326571273872933
6.16,0.033864050180146
6.162,0.0362546681937876
6.164,0.0401436841055604
6.166,0.0452722722302258
6.168,0.0508080785199653
6.17,0.0558938129111955
6.172,0.0596998208139116
6.174,0.0620320635304039
6.176,0.0633321182552582
6.178,0.0640691976566383
6.18,0.0647125144027081
6.182,0.0657312811616315
6.184,0.0675947106015724
6.186,0.0707720153906946
6.188,0.075707707542456
6.19,0.0822781840120751
6.192,0.0897917266965311
6.194,0.0975319168380971
6.196,0.104782335679046
6.198,0.110850674447582
6.2,0.115599154048302
6.202,0.119444525062197
6.204,0.122827648056189
6.206,0.1261893835972
6.208,0.129961074483104
6.21,0.134355154823714
6.212,0.139365150040776
6.214,0.144975067786991
6.216,0.151180214652303
6.218,0.15823577278326
6.22,0.166656799883013
6.222,0.176969652591957
6.224,0.189615019787096
6.226,0.203063231787402
6.228,0.213945376139752
6.23,0.221822535704069
6.232,0.229271456416719
6.234,0.239
6.236,0.252792250946704
6.238,0.268737184831612
6.24,0.284
6.242,0.296733016402373
6.244,0.309037040410155
6.246,0.324
6.248,0.3435530184195
6.25,0.365
6.252,0.38471751296214
6.254,0.4
6.256,0.409951929731939
6.258,0.42
6.26,0.434849768110105
6.262,0.45
6.264,0.460110519769421
6.266,0.465692175534234
6.268,0.468718571414336
6.27,0.471163311529625
6.272,0.475
6.274,0.481537130450361
6.276,0.489422754525623
6.278,0.496639813375705
6.28,0.501171248150525
6.282,0.501
6.284,0.494957174166807
6.286,0.485266532264652
6.288,0.475
6.29,0.466376167431725
6.292,0.458200282028347
6.294,0.448424255610795
6.296,0.435
6.298,0.416718057527356
6.3,0.395723492566117
6.302,0.375
6.304,0.356409315249406
6.306,0.337325335881468
6.308,0.314
6.31,0.284481119319851
6.312,0.254
6.314,0.227801351245305
6.316,0.204
6.318,0.180063475698928
6.32,0.158
6.322,0.14025968249682
6.324,0.12651949230269
6.326,0.115763113410835
6.328,0.106974229814481
6.33,0.0991530840322818
6.332,0.0916807646677251
6.334,0.084319206409132
6.336,0.0768469024702515
6.338,0.0690487177674925
6.34,0.0608560663784479
6.342,0.0523469115418942
6.344,0.0436145721538932
6.346,0.0349589980668937
6.348,0.0268867700897307
6.35,0.0199134529858649
6.352,0.0145372349964884
6.354,0.0108566443506153
6.356,0.00857054926508249
6.358,0.00736044143445785
6.36,0.00690781255330947
6.362,0.00689415431620538
6.364,0.00700095841771364
6.366,0.00691791906911415
6.368,0.0065233883660587
6.37,0.00588437628857097
6.372,0.00507609533338665
6.374,0.00417375799724118
6.376,0.00325257677687024
6.378,0.00238776416900932
6.38,0
6.382,0
6.384,0
6.386,0
6.388,0
6.39,0
6.392,0
6.394,0
6.396,0
6.398,0
6.4,0
6.402,0
6.404,0
6.406,0
6.408,0
6.41,0
6.412,0
6.414,0
6.416,0
6.418,0
6.42,0
6.422,0
6.424,0
6.426,0
6.428,0
6.43,0
6.432,0
6.434,0
6.436,0
6.438,0
6.44,0
6.442,0
6.444,0
6.446,0
6.448,0
6.45,0
6.452,0
6.454,0
6.456,0
6.458,0
6.46,0
6.462,0
6.464,0
6.466,0
6.468,0
6.47,0
6.472,0
6.474,0
6.476,0
6.478,0
6.48,0
6.482,0
6.484,0
6.486,0
6.488,0
6.49,0
6.492,0
6.494,0
6.496,0
6.498,0
6.5,0
6.502,0
6.504,0
6.506,0
6.508,0
6.51,0
6.512,0
6.514,0
6.516,0
6.518,0
6.52,0
6.522,0
6.524,0
6.526,0
6.528,0
6.53,0
6.532,0
6.534,0
6.536,0
6.538,0
6.54,0
6.542,0
6.544,0
6.546,0
6.548,0
6.55,0
6.552,0
6.554,0
6.556,0
6.558,0
6.56,0
6.562,0
6.564,0
6.566,0
6.568,0
6.57,0
6.572,0
6.574,0
6.576,0
6.578,0
6.58,0
6.582,0
6.584,0
6.586,0
6.588,0
6.59,0
6.592,0
6.594,0
6.596,0
6.598,0
6.6,0
6.602,0
6.604,0
6.606,0
6.608,0
6.61,0
6.612,0
6.614,0
6.616,0
6.618,0
6.62,0
6.622,0
6.624,0
6.626,0
6.628,0
6.63,0
6.632,0
6.634,0
6.636,0
6.638,0
6.64,0
6.642,0
6.644,0
6.646,0
6.648,0
6.65,-0.00708460711772357
6.652,-0.00875867789606505
6.654,-0.0097707094803553
6.656,-0.0100503433721833
6.658,-0.0095272210731378
6.66,-0.00813098408480784
6.662,-0.00579127390878231
6.664,-0.00243773204665004
6.666,0.002
6.668,0.00759228072957896
6.67,0.0144094686404979
6.672,0.0225219222311678
6.674,0.032
6.676,0.0426795580987543
6.678,0.0534584432925861
6.68,0.063
6.682,0.0703086533523926
6.684,0.0757531513327301
6.686,0.0800433226368714
6.688,0.0838889959606751
6.69,0.088
6.692,0.0928813623772117
6.694,0.0982189064207034
6.696,0.103493654385375
6.698,0.108186628526127
6.7,0.11177885109786
6.702,0.113769020525728
6.704,0.114062387150768
6.706,0.112970753229892
6.708,0.11082359719027
6.71,0.107950397459071
6.712,0.104680632463465
6.714,0.101322448742521
6.716,0.0976933594089958
6.718,0.0931202441493368
6.72,0.0869086507618899
6.722,0.0783641270450015
6.724,0.0668822379065784
6.726,0.0539289417744214
6.728,0.0429403503473251
6.73,0.0351370667089276
6.732,0.02943416821815
6.734,0.0246658413406259
6.736,0.0201113077210971
6.738,0.0154948241834132
6.74,0.010559996907037
6.742,0.00505043207143152
6.744,-0.00126930799882813
6.746,-0.00815266964158817
6.748,-0.0148711078571161
6.75,-0.0206751215005672
6.752,-0.0248404509021935
6.754,-0.0272233903194679
6.756,-0.0282607879370846
6.758,-0.0284147334148342
6.76,-0.0281473164125075
6.762,-0.0279110227506538
6.764,-0.0279374499472761
6.766,-0.0282373072178306
6.768,-0.0288116999385322
6.77,-0.0296617334855958
6.772,-0.0307885132352366
6.774,-0.0321931445636694
6.776,-0.0338708461454447
6.778,-0.0356814425168278
6.78,-0.0373493640757983
6.782,-0.0385931545186718
6.784,-0.0391313575417635
6.786,-0.0386825168413888
6.788,-0.0369941879126011
6.79,-0.0344811976214325
6.792,-0.0322256442048932
6.794,-0.0313386376987318
6.796,-0.0329312881386968
6.798,-0.0381147055605367
6.8,-0.048
6.802,-0.0626784974835354
6.804,-0.0781623880003917
6.806,-0.0894440775305174
6.808,-0.0915159720538615
6.81,-0.0793704775503728
6.812,-0.048
6.814,0.00787945198275486
6.816,0.0946574592451774
6.818,0.219
6.82,0.381817728105234
6.822,0.561000000000002
6.824,0.731376282654542
6.826,0.878557782582414
6.828,0.990851141183019
6.83,1.05656299985575
6.832,1.064
6.834,1.00488859171392
6.836,0.884634459890632
6.838,0.712063098122032
6.84,0.496
6.842,0.254558087983522
6.844,0.043
6.846,-0.0893680600355242
6.848,-0.154215339725855
6.85,-0.178454949553258
6.852,-0.189
6.854,-0.207222774035877
6.856,-0.232332244580807
6.858,-0.257996557042236
6.86,-0.277883856827612
6.862,-0.285662289344385
6.864,-0.275
6.866,-0.243436904532212
6.868,-0.204
6.87,-0.169825574630218
6.872,-0.139
6.874,-0.107510796946915
6.876,-0.078
6.878,-0.0537956915439227
6.88,-0.0343156316944211
6.882,-0.018
6.884,-0.00368003270056166
6.886,0.00824880719840165
6.888,0.0170000000000001
6.89,0.0220597302817335
6.892,0.024004999718662
6.894,0.0236855142602354
6.896,0.0219509798559031
6.898,0.0196511024551151
6.9,0.0176355880073211
6.902,0.0167297140094783
6.904,0.0171969035512132
6.906,0.0187387253148218
6.908,0.0210323195301075
6.91,0.0237548264268736
6.912,0.0265833862349236
6.914,0.0291951391840608
6.916,0.0312672255040886
6.918,0.0324905874761291
6.92,0.0328736145616375
6.922,0.0327421434024014
6.924,0.0324358126915276
6.926,0.0322942611221227
6.928,0.0326571273872933
6.93,0.033864050180146
6.932,0.0362546681937876
6.934,0.0401436841055604
6.936,0.0452722722302258
6.938,0.0508080785199653
6.94,0.0558938129111955
6.942,0.0596998208139116
6.944,0.0620320635304039
6.946,0.0633321182552582
6.948,0.0640691976566383
6.95,0.0647125144027081
6.952,0.0657312811616315
6.954,0.0675947106015724
6.956,0.0707720153906946
6.958,0.075707707542456
6.96,0.0822781840120751
6.962,0.0897917266965311
6.964,0.0975319168380971
6.966,0.104782335679046
6.968,0.110850674447582
6.97,0.115599154048302
6.972,0.119444525062197
6.974,0.122827648056189
6.976,0.1261893835972
6.978,0.129961074483104
6.98,0.134355154823714
6.982,0.139365150040776
6.984,0.144975067786991
6.986,0.151180214652303
6.988,0.15823577278326
6.99,0.166656799883013
6.992,0.176969652591957
6.994,0.189615019787096
6.996,0.203063231787402
6.998,0.213945376139752
7,0.221822535704069
7.002,0.229271456416719
7.004,0.239
7.006,0.252792250946704
7.008,0.268737184831612
7.01,0.284
7.012,0.296733016402373
7.014,0.309037040410155
7.016,0.324
7.018,0.3435530184195
7.02,0.365
7.022,0.38471751296214
7.024,0.4
7.026,0.409951929731939
7.028,0.42
7.03,0.434849768110105
7.032,0.45
7.034,0.460110519769421
7.036,0.465692175534234
7.038,0.468718571414336
7.04,0.471163311529625
7.042,0.475
7.044,0.481537130450361
7.046,0.489422754525623
7.048,0.496639813375705
7.05,0.501171248150525
7.052,0.501
7.054,0.494957174166807
7.056,0.485266532264652
7.058,0.475
7.06,0.466376167431725
7.062,0.458200282028347
7.064,0.448424255610795
7.066,0.435
7.068,0.416718057527356
7.07,0.395723492566117
7.072,0.375
7.074,0.356409315249406
7.076,0.337325335881468
7.078,0.314
7.08,0.284481119319851
7.082,0.254
7.084,0.227801351245305
7.086,0.204
7.088,0.180063475698928
7.09,0.158
7.092,0.14025968249682
7.094,0.12651949230269
7.096,0.115763113410835
7.098,0.106974229814481
7.1,0.0991530840322818
7.102,0.0916807646677251
7.104,0.084319206409132
7.106,0.0768469024702515
7.108,0.0690487177674925
7.11,0.0608560663784479
7.112,0.0523469115418942
7.114,0.0436145721538932
7.116,0.0349589980668937
7.118,0.0268867700897307
7.12,0.0199134529858649
7.122,0.0145372349964884
7.124,0.0108566443506153
7.126,0.00857054926508249
7.128,0.00736044143445785
7.13,0.00690781255330947
7.132,0.00689415431620538
7.134,0.00700095841771364
7.136,0.00691791906911415
7.138,0.0065233883660587
7.14,0.00588437628857097
7.142,0.00507609533338665
7.144,0.00417375799724118
7.146,0.00325257677687024
7.148,0.00238776416900932
7.15,0
7.152,0
7.154,0
7.156,0
7.158,0
7.16,0
7.162,0
7.164,0
7.166,0
7.168,0
7.17,0
7.172,0
7.174,0
7.176,0
7.178,0
7.18,0
7.182,0
7.184,0
7.186,0
7.188,0
7.19,0
7.192,0
7.194,0
7.196,0
7.198,0
7.2,0
7.202,0
7.204,0
7.206,0
7.208,0
7.21,0
7.212,0
7.214,0
7.216,0
7.218,0
7.22,0
7.222,0
7.224,0
7.226,0
7.228,0
7.23,0
7.232,0
7.234,0
7.236,0
7.238,0
7.24,0
7.242,0
7.244,0
7.246,0
7.248,0
7.25,0
7.252,0
7.254,0
7.256,0
7.258,0
7.26,0
7.262,0
7.264,0
7.266,0
7.268,0
7.27,0
7.272,0
7.274,0
7.276,0
7.278,0
7.28,0
7.282,0
7.284,0
7.286,0
7.288,0
7.29,0
7.292,0
7.294,0
7.296,0
7.298,0
7.3,0
7.302,0
7.304,0
7.306,0
7.308,0
7.31,0
7.312,0
7.314,0
7.316,0
7.318,0
7.32,0
7.322,0
7.324,0
7.326,0
7.328,0
7.33,0
7.332,0
7.334,0
7.336,0
7.338,0
7.34,0
7.342,0
7.344,0
7.346,0
7.348,0
7.35,0
7.352,0
7.354,0
7.356,0
7.358,0
7.36,0
7.362,0
7.364,0
7.366,0
7.368,0
7.37,0
7.372,0
7.374,0
7.376,0
7.378,0
7.38,0
7.382,0
7.384,0
7.386,0
7.388,0
7.39,0
7.392,0
7.394,0
7.396,0
7.398,0
7.4,0
7.402,0
7.404,0
7.406,0
7.408,-0.00708460711772357
7.41,-0.00875867789606505
7.412,-0.0097707094803553
7.414,-0.0100503433721833
7.416,-0.0095272210731378
7.418,-0.00813098408480784
7.42,-0.00579127390878231
7.422,-0.00243773204665004
7.424,0.002
7.426,0.00759228072957896
7.428,0.0144094686404979
7.43,0.0225219222311678
7.432,0.032
7.434,0.0426795580987543
7.436,0.0534584432925861
7.438,0.063
7.44,0.0703086533523926
7.442,0.0757531513327301
7.444,0.0800433226368714
7.446,0.0838889959606751
7.448,0.088
7.45,0.0928813623772117
7.452,0.0982189064207034
7.454,0.103493654385375
7.456,0.108186628526127
7.458,0.11177885109786
7.46,0.113769020525728
7.462,0.114062387150768
7.464,0.112970753229892
7.466,0.11082359719027
7.468,0.107950397459071
7.47,0.104680632463465
7.472,0.101322448742521
7.474,0.0976933594089958
7.476,0.0931202441493368
7.478,0.0869086507618899
7.48,0.0783641270450015
7.482,0.0668822379065784
7.484,0.0539289417744214
7.486,0.0429403503473251
7.488,0.0351370667089276
7.49,0.02943416821815
7.492,0.0246658413406259
7.494,0.0201113077210971
7.496,0.0154948241834132
7.498,0.010559996907037
7.5,0.00505043207143152
7.502,-0.00126930799882813
7.504,-0.00815266964158817
7.506,-0.0148711078571161
7.508,-0.0206751215005672
7.51,-0.0248404509021935
7.512,-0.0272233903194679
7.514,-0.0282607879370846
7.516,-0.0284147334148342
7.518,-0.0281473164125075
7.52,-0.0279110227506538
7.522,-0.0279374499472761
7.524,-0.0282373072178306
7.526,-0.0288116999385322
7.528,-0.0296617334855958
7.53,-0.0307885132352366
7.532,-0.0321931445636694
7.534,-0.0338708461454447
7.536,-0.0356814425168278
7.538,-0.0373493640757983
7.54,-0.0385931545186718
7.542,-0.0391313575417635
7.544,-0.0386825168413888
7.546,-0.0369941879126011
7.548,-0.0344811976214325
7.55,-0.0322256442048932
7.552,-0.0313386376987318
7.554,-0.0329312881386968
7.556,-0.0381147055605367
7.558,-0.048
7.56,-0.0626784974835354
7.562,-0.0781623880003917
7.564,-0.0894440775305174
7.566,-0.0915159720538615
7.568,-0.0793704775503728
7.57,-0.048
7.572,0.00787945198275486
7.574,0.0946574592451774
7.576,0.219
7.578,0.381817728105234
7.58,0.561000000000002
7.582,0.731376282654542
7.584,0.878557782582414
7.586,0.990851141183019
7.588,1.05656299985575
7.59,1.064
7.592,1.00488859171392
7.594,0.884634459890632
7.596,0.712063098122032
7.598,0.496
7.6,0.254558087983522
7.602,0.043
7.604,-0.0893680600355242
7.606,-0.154215339725855
7.608,-0.178454949553258
7.61,-0.189
7.612,-0.207222774035877
7.614,-0.232332244580807
7.616,-0.257996557042236
7.618,-0.277883856827612
7.62,-0.285662289344385
7.622,-0.275
7.624,-0.243436904532212
7.626,-0.204
7.628,-0.169825574630218
7.63,-0.139
7.632,-0.107510796946915
7.634,-0.078
7.636,-0.0537956915439227
7.638,-0.0343156316944211
7.64,-0.018
7.642,-0.00368003270056166
7.644,0.00824880719840165
7.646,0.0170000000000001
7.648,0.0220597302817335
7.65,0.024004999718662
7.652,0.0236855142602354
7.654,0.0219509798559031
7.656,0.0196511024551151
7.658,0.0176355880073211
7.66,0.0167297140094783
7.662,0.0171969035512132
7.664,0.0187387253148218
7.666,0.0210323195301075
7.668,0.0237548264268736
7.67,0.0265833862349236
7.672,0.0291951391840608
7.674,0.0312672255040886
7.676,0.0324905874761291
7.678,0.0328736145616375
7.68,0.0327421434024014
7.682,0.0324358126915276
7.684,0.0322942611221227
7.686,0.0326571273872933
7.688,0.033864050180146
7.69,0.0362546681937876
7.692,0.0401436841055604
7.694,0.0452722722302258
7.696,0.0508080785199653
7.698,0.0558938129111955
7.7,0.0596998208139116
7.702,0.0620320635304039
7.704,0.0633321182552582
7.706,0.0640691976566383
7.708,0.0647125144027081
7.71,0.0657312811616315
7.712,0.0675947106015724
7.714,0.0707720153906946
7.716,0.075707707542456
7.718,0.0822781840120751
7.72,0.0897917266965311
7.722,0.0975319168380971
7.724,0.104782335679046
7.726,0.110850674447582
7.728,0.115599154048302
7.73,0.119444525062197
7.732,0.122827648056189
7.734,0.1261893835972
7.736,0.129961074483104
7.738,0.134355154823714
7.74,0.139365150040776
7.742,0.144975067786991
7.744,0.151180214652303
7.746,0.15823577278326
7.748,0.166656799883013
7.75,0.176969652591957
7.752,0.189615019787096
7.754,0.203063231787402
7.756,0.213945376139752
7.758,0.221822535704069
7.76,0.229271456416719
7.762,0.239
7.764,0.252792250946704
7.766,0.268737184831612
7.768,0.284
7.77,0.296733016402373
7.772,0.309037040410155
7.774,0.324
7.776,0.3435530184195
7.778,0.365
7.78,0.38471751296214
7.782,0.4
7.784,0.409951929731939
7.786,0.42
7.788,0.434849768110105
7.79,0.45
7.792,0.460110519769421
7.794,0.465692175534234
7.796,0.468718571414336
7.798,0.471163311529625
7.8,0.475
7.802,0.481537130450361
7.804,0.489422754525623
7.806,0.496639813375705
7.808,0.501171248150525
7.81,0.501
7.812,0.494957174166807
7.814,0.485266532264652
7.816,0.475
7.818,0.466376167431725
7.82,0.458200282028347
7.822,0.448424255610795
7.824,0.435
7.826,0.416718057527356
7.828,0.395723492566117
7.83,0.375
7.832,0.356409315249406
7.834,0.337325335881468
7.836,0.314
7.838,0.284481119319851
7.84,0.254
7.842,0.227801351245305
7.844,0.204
7.846,0.180063475698928
7.848,0.158
7.85,0.14025968249682
7.852,0.12651949230269
7.854,0.115763113410835
7.856,0.106974229814481
7.858,0.0991530840322818
7.86,0.0916807646677251
7.862,0.084319206409132
7.864,0.0768469024702515
7.866,0.0690487177674925
7.868,0.0608560663784479
7.87,0.0523469115418942
7.872,0.0436145721538932
7.874,0.0349589980668937
7.876,0.0268867700897307
7.878,0.0199134529858649
7.88,0.0145372349964884
7.882,0.0108566443506153
7.884,0.00857054926508249
7.886,0.00736044143445785
7.888,0.00690781255330947
7.89,0.00689415431620538
7.892,0.00700095841771364
7.894,0.00691791906911415
7.896,0.0065233883660587
7.898,0.00588437628857097
7.9,0.00507609533338665
7.902,0.00417375799724118
7.904,0.00325257677687024
7.906,0.00238776416900932
7.908,0
7.91,0
7.912,0
7.914,0
7.916,0
7.918,0
7.92,0
7.922,0
7.924,0
7.926,0
7.928,0
7.93,0
7.932,0
7.934,0
7.936,0
7.938,0
7.94,0
7.942,0
7.944,0
7.946,0
7.948,0
7.95,0
7.952,0
7.954,0
7.956,0
7.958,0
7.96,0
7.962,0
7.964,0
7.966,0
7.968,0
7.97,0
7.972,0
7.974,0
7.976,0
7.978,0
7.98,0
7.982,0
7.984,0
7.986,0
7.988,0
7.99,0
7.992,0
7.994,0
7.996,0
7.998,0
8,0
8.002,0
8.004,0
8.006,0
8.008,0
8.01,0
8.012,0
8.014,0
8.016,0
8.018,0
8.02,0
8.022,0
8.024,0
8.026,0
8.028,0
8.03,0
8.032,0
8.034,0
8.036,0
8.038,0
8.04,0
8.042,0
8.044,0
8.046,0
8.048,0
8.05,0
8.052,0
8.054,0
8.056,0
8.058,0
8.06,0
8.062,0
8.064,0
8.066,0
8.068,0
8.07,0
8.072,0
8.074,0
8.076,0
8.078,0
8.08,0
8.082,0
8.084,0
8.086,0
8.088,0
8.09,0
8.092,0
8.094,0
8.096,0
8.098,0
8.1,0
8.102,0
8.104,0
8.106,0
8.108,0
8.11,0
8.112,0
8.114,0
8.116,0
8.118,0
8.12,0
8.122,0
8.124,0
8.126,0
8.128,0
8.13,0
8.132,0
8.134,0
8.136,0
8.138,0
8.14,0
8.142,0
8.144,0
8.146,0
8.148,0
8.15,0
8.152,0
8.154,0
8.156,-0.00708460711772357
8.158,-0.00875867789606505
8.16,-0.0097707094803553
8.162,-0.0100503433721833
8.164,-0.0095272210731378
8.166,-0.00813098408480784
8.168,-0.00579127390878231
8.17,-0.00243773204665004
8.172,0.002
8.174,0.00759228072957896
8.176,0.0144094686404979
8.178,0.0225219222311678
8.18,0.032
8.182,0.0426795580987543
8.184,0.0534584432925861
8.186,0.063
8.188,0.0703086533523926
8.19,0.0757531513327301
8.192,0.0800433226368714
8.194,0.0838889959606751
8.196,0.088
8.198,0.0928813623772117
8.2,0.0982189064207034
8.202,0.103493654385375
8.204,0.108186628526127
8.206,0.11177885109786
8.208,0.113769020525728
8.21,0.114062387150768
8.212,0.112970753229892
8.214,0.11082359719027
8.216,0.107950397459071
8.218,0.104680632463465
8.22,0.101322448742521
8.222,0.0976933594089958
8.224,0.0931202441493368
8.226,0.0869086507618899
8.228,0.0783641270450015
8.23,0.0668822379065784
8.232,0.0539289417744214
8.234,0.0429403503473251
8.236,0.0351370667089276
8.238,0.02943416821815
8.24,0.0246658413406259
8.242,0.0201113077210971
8.244,0.0154948241834132
8.246,0.010559996907037
8.248,0.00505043207143152
8.25,-0.00126930799882813
8.252,-0.00815266964158817
8.254,-0.0148711078571161
8.256,-0.0206751215005672
8.258,-0.0248404509021935
8.26,-0.0272233903194679
8.262,-0.0282607879370846
8.264,-0.0284147334148342
8.266,-0.0281473164125075
8.268,-0.0279110227506538
8.27,-0.0279374499472761
8.272,-0.0282373072178306
8.274,-0.0288116999385322
8.276,-0.0296617334855958
8.278,-0.0307885132352366
8.28,-0.0321931445636694
8.282,-0.0338708461454447
8.284,-0.0356814425168278
8.286,-0.0373493640757983
8.288,-0.0385931545186718
8.29,-0.0391313575417635
8.292,-0.0386825168413888
8.294,-0.0369941879126011
8.296,-0.0344811976214325
8.298,-0.0322256442048932
8.3,-0.0313386376987318
8.302,-0.0329312881386968
8.304,-0.0381147055605367
8.306,-0.048
8.308,-0.0626784974835354
8.31,-0.0781623880003917
8.312,-0.0894440775305174
8.314,-0.0915159720538615
8.316,-0.0793704775503728
8.318,-0.048
8.32,0.00787945198275486
8.322,0.0946574592451774
8.324,0.219
8.326,0.381817728105234
8.328,0.561000000000002
8.33,0.731376282654542
8.332,0.878557782582414
8.334,0.990851141183019
8.336,1.05656299985575
8.338,1.064
8.34,1.00488859171392
8.342,0.884634459890632
8.344,0.712063098122032
8.346,0.496
8.348,0.254558087983522
8.35,0.043
8.352,-0.0893680600355242
8.354,-0.154215339725855
8.356,-0.178454949553258
8.358,-0.189
8.36,-0.207222774035877
8.362,-0.232332244580807
8.364,-0.257996557042236
8.366,-0.277883856827612
8.368,-0.285662289344385
8.37,-0.275
8.372,-0.243436904532212
8.374,-0.204
8.376,-0.169825574630218
8.378,-0.139
8.38,-0.107510796946915
8.382,-0.078
8.384,-0.0537956915439227
8.386,-0.0343156316944211
8.388,-0.018
8.39,-0.00368003270056166
8.392,0.00824880719840165
8.394,0.0170000000000001
8.396,0.0220597302817335
8.398,0.024004999718662
8.4,0.0236855142602354
8.402,0.0219509798559031
8.404,0.0196511024551151
8.406,0.0176355880073211
8.408,0.0167297140094783
8.41,0.0171969035512132
8.412,0.0187387253148218
8.414,0.0210323195301075
8.416,0.0237548264268736
8.418,0.0265833862349236
8.42,0.0291951391840608
8.422,0.0312672255040886
8.424,0.0324905874761291
8.426,0.0328736145616375
8.428,0.0327421434024014
8.43,0.0324358126915276
8.432,0.0322942611221227
8.434,0.0326571273872933
8.436,0.033864050180146
8.438,0.0362546681937876
8.44,0.0401436841055604
8.442,0.0452722722302258
8.444,0.0508080785199653
8.446,0.0558938129111955
8.448,0.0596998208139116
8.45,0.0620320635304039
8.452,0.0633321182552582
8.454,0.0640691976566383
8.456,0.0647125144027081
8.458,0.0657312811616315
8.46,0.0675947106015724
8.462,0.0707720153906946
8.464,0.075707707542456
8.466,0.0822781840120751
8.468,0.0897917266965311
8.47,0.0975319168380971
8.472,0.104782335679046
8.474,0.110850674447582
8.476,0.115599154048302
8.478,0.119444525062197
8.48,0.122827648056189
8.482,0.1261893835972
8.484,0.129961074483104
8.486,0.134355154823714
8.488,0.139365150040776
8.49,0.144975067786991
8.492,0.151180214652303
8.494,0.15823577278326
8.496,0.166656799883013
8.498,0.176969652591957
8.5,0.189615019787096
8.502,0.203063231787402
8.504,0.213945376139752
8.506,0.221822535704069
8.508,0.229271456416719
8.51,0.239
8.512,0.252792250946704
8.514,0.268737184831612
8.516,0.284
8.518,0.296733016402373
8.52,0.309037040410155
8.522,0.324
8.524,0.3435530184195
8.526,0.365
8.528,0.38471751296214
8.53,0.4
8.532,0.409951929731939
8.534,0.42
8.536,0.434849768110105
8.538,0.45
8.54,0.460110519769421
8.542,0.465692175534234
8.544,0.468718571414336
8.546,0.471163311529625
8.548,0.475
8.55,0.481537130450361
8.552,0.489422754525623
8.554,0.496639813375705
8.556,0.501171248150525
8.558,0.501
8.56,0.494957174166807
8.562,0.485266532264652
8.564,0.475
8.566,0.466376167431725
8.568,0.458200282028347
8.57,0.448424255610795
8.572,0.435
8.574,0.416718057527356
8.576,0.395723492566117
8.578,0.375
8.58,0.356409315249406
8.582,0.337325335881468
8.584,0.314
8.586,0.284481119319851
8.588,0.254
8.59,0.227801351245305
8.592,0.204
8.594,0.180063475698928
8.596,0.158
8.598,0.14025968249682
8.6,0.12651949230269
8.602,0.115763113410835
8.604,0.106974229814481
8.606,0.0991530840322818
8.608,0.0916807646677251
8.61,0.084319206409132
8.612,0.0768469024702515
8.614,0.0690487177674925
8.616,0.0608560663784479
8.618,0.0523469115418942
8.62,0.0436145721538932
8.622,0.0349589980668937
8.624,0.0268867700897307
8.626,0.0199134529858649
8.628,0.0145372349964884
8.63,0.0108566443506153
8.632,0.00857054926508249
8.634,0.00736044143445785
8.636,0.00690781255330947
8.638,0.00689415431620538
8.64,0.00700095841771364
8.642,0.00691791906911415
8.644,0.0065233883660587
8.646,0.00588437628857097
8.648,0.00507609533338665
8.65,0.00417375799724118
8.652,0.00325257677687024
8.654,0.00238776416900932
8.656,0
8.658,0
8.66,0
8.662,0
8.664,0
8.666,0
8.668,0
8.67,0
8.672,0
8.674,0
8.676,0
8.678,0
8.68,0
8.682,0
8.684,0
8.686,0
8.688,0
8.69,0
8.692,0
8.694,0
8.696,0
8.698,0
8.7,0
8.702,0
8.704,0
8.706,0
8.708,0
8.71,0
8.712,0
8.714,0
8.716,0
8.718,0
8.72,0
8.722,0
8.724,0
8.726,0
8.728,0
8.73,0
8.732,0
8.734,0
8.736,0
8.738,0
8.74,0
8.742,0
8.744,0
8.746,0
8.748,0
8.75,0
8.752,0
8.754,0
8.756,0
8.758,0
8.76,0
8.762,0
8.764,0
8.766,0
8.768,0
8.77,0
8.772,0
8.774,0
8.776,0
8.778,0
8.78,0
8.782,0
8.784,0
8.786,0
8.788,0
8.79,0
8.792,0
8.794,0
8.796,0
8.798,0
8.8,0
8.802,0
8.804,0
8.806,0
8.808,0
8.81,0
8.812,0
8.814,0
8.816,0
8.818,0
8.82,0
8.822,0
8.824,0
8.826,0
8.828,0
8.83,0
8.832,0
8.834,0
8.836,0
8.838,0
8.84,0
8.842,0
8.844,0
8.846,0
8.848,0
8.85,0
8.852,0
8.854,0
8.856,0
8.858,0
8.86,0
8.862,0
8.864,0
8.866,0
8.868,0
8.87,0
8.872,0
8.874,0
8.876,0
8.878,0
8.88,0
8.882,0
8.884,0
8.886,0
8.888,0
8.89,0
8.892,0
8.894,0
8.896,-0.00708460711772357
8.898,-0.00875867789606505
8.9,-0.0097707094803553
8.902,-0.0100503433721833
8.904,-0.0095272210731378
8.906,-0.00813098408480784
8.908,-0.00579127390878231
8.91,-0.00243773204665004
8.912,0.002
8.914,0.00759228072957896
8.916,0.0144094686404979
8.918,0.0225219222311678
8.92,0.032
8.922,0.0426795580987543
8.924,0.0534584432925861
8.926,0.063
8.928,0.0703086533523926
8.93,0.0757531513327301
8.932,0.0800433226368714
8.934,0.0838889959606751
8.936,0.088
8.938,0.0928813623772117
8.94,0.0982189064207034
8.942,0.103493654385375
8.944,0.108186628526127
8.946,0.11177885109786
8.948,0.113769020525728
8.95,0.114062387150768
8.952,0.112970753229892
8.954,0.11082359719027
8.956,0.107950397459071
8.958,0.104680632463465
8.96,0.101322448742521
8.962,0.0976933594089958
8.964,0.0931202441493368
8.966,0.0869086507618899
8.968,0.0783641270450015
8.97,0.0668822379065784
8.972,0.0539289417744214
8.974,0.0429403503473251
8.976,0.0351370667089276
8.978,0.02943416821815
8.98,0.0246658413406259
8.982,0.0201113077210971
8.984,0.0154948241834132
8.986,0.010559996907037
8.988,0.00505043207143152
8.99,-0.00126930799882813
8.992,-0.00815266964158817
8.994,-0.0148711078571161
8.996,-0.0206751215005672
8.998,-0.0248404509021935
9,-0.0272233903194679
9.002,-0.0282607879370846
9.004,-0.0284147334148342
9.006,-0.0281473164125075
9.008,-0.0279110227506538
9.01,-0.0279374499472761
9.012,-0.0282373072178306
9.014,-0.0288116999385322
9.016,-0.0296617334855958
9.018,-0.0307885132352366
9.02,-0.0321931445636694
9.022,-0.0338708461454447
9.024,-0.0356814425168278
9.026,-0.0373493640757983
9.028,-0.0385931545186718
9.03,-0.0391313575417635
9.032,-0.0386825168413888
9.034,-0.0369941879126011
9.036,-0.0344811976214325
9.038,-0.0322256442048932
9.04,-0.0313386376987318
9.042,-0.0329312881386968
9.044,-0.0381147055605367
9.046,-0.048
9.048,-0.0626784974835354
9.05,-0.0781623880003917
9.052,-0.0894440775305174
9.054,-0.0915159720538615
9.056,-0.0793704775503728
9.058,-0.048
9.06,0.00787945198275486
9.062,0.0946574592451774
9.064,0.219
9.066,0.381817728105234
9.068,0.561000000000002
9.07,0.731376282654542
9.072,0.878557782582414
9.074,0.990851141183019
9.076,1.05656299985575
9.078,1.064
9.08,1.00488859171392
9.082,0.884634459890632
9.084,0.712063098122032
9.086,0.496
9.088,0.254558087983522
9.09,0.043
9.092,-0.0893680600355242
9.094,-0.154215339725855
9.096,-0.178454949553258
9.098,-0.189
9.1,-0.207222774035877
9.102,-0.232332244580807
9.104,-0.257996557042236
9.106,-0.277883856827612
9.108,-0.285662289344385
9.11,-0.275
9.112,-0.243436904532212
9.114,-0.204
9.116,-0.169825574630218
9.118,-0.139
9.12,-0.107510796946915
9.122,-0.078
9.124,-0.0537956915439227
9.126,-0.0343156316944211
9.128,-0.018
9.13,-0.00368003270056166
9.132,0.00824880719840165
9.134,0.0170000000000001
9.136,0.0220597302817335
9.138,0.024004999718662
9.14,0.0236855142602354
9.142,0.0219509798559031
9.144,0.0196511024551151
9.146,0.0176355880073211
9.148,0.0167297140094783
9.15,0.0171969035512132
9.152,0.0187387253148218
9.154,0.0210323195301075
9.156,0.0237548264268736
9.158,0.0265833862349236
9.16,0.0291951391840608
9.162,0.0312672255040886
9.164,0.0324905874761291
9.166,0.0328736145616375
9.168,0.0327421434024014
9.17,0.0324358126915276
9.172,0.0322942611221227
9.174,0.0326571273872933
9.176,0.033864050180146
9.178,0.0362546681937876
9.18,0.0401436841055604
9.182,0.0452722722302258
9.184,0.0508080785199653
9.186,0.0558938129111955
9.188,0.0596998208139116
9.19,0.0620320635304039
9.192,0.0633321182552582
9.194,0.0640691976566383
9.196,0.0647125144027081
9.198,0.0657312811616315
9.2,0.0675947106015724
9.202,0.0707720153906946
9.204,0.075707707542456
9.206,0.0822781840120751
9.208,0.0897917266965311
9.21,0.0975319168380971
9.212,0.104782335679046
9.214,0.110850674447582
9.216,0.115599154048302
9.218,0.119444525062197
9.22,0.122827648056189
9.222,0.1261893835972
9.224,0.129961074483104
9.226,0.134355154823714
9.228,0.139365150040776
9.23,0.144975067786991
9.232,0.151180214652303
9.234,0.15823577278326
9.236,0.166656799883013
9.238,0.176969652591957
9.24,0.189615019787096
9.242,0.203063231787402
9.244,0.213945376139752
9.246,0.221822535704069
9.248,0.229271456416719
9.25,0.239
9.252,0.252792250946704
9.254,0.268737184831612
9.256,0.284
9.258,0.296733016402373
9.26,0.309037040410155
9.262,0.324
9.264,0.3435530184195
9.266,0.365
9.268,0.38471751296214
9.27,0.4
9.272,0.409951929731939
9.274,0.42
9.276,0.434849768110105
9.278,0.45
9.28,0.460110519769421
9.282,0.465692175534234
9.284,0.468718571414336
9.286,0.471163311529625
9.288,0.475
9.29,0.481537130450361
9.292,0.489422754525623
9.294,0.496639813375705
9.296,0.501171248150525
9.298,0.501
9.3,0.494957174166807
9.302,0.485266532264652
9.304,0.475
9.306,0.466376167431725
9.308,0.458200282028347
9.31,0.448424255610795
9.312,0.435
9.314,0.416718057527356
9.316,0.395723492566117
9.318,0.375
9.32,0.356409315249406
9.322,0.337325335881468
9.324,0.314
9.326,0.284481119319851
9.328,0.254
9.33,0.227801351245305
9.332,0.204
9.334,0.180063475698928
9.336,0.158
9.338,0.14025968249682
9.34,0.12651949230269
9.342,0.115763113410835
9.344,0.106974229814481
9.346,0.0991530840322818
9.348,0.0916807646677251
9.35,0.084319206409132
9.352,0.0768469024702515
9.354,0.0690487177674925
9.356,0.0608560663784479
9.358,0.0523469115418942
9.36,0.0436145721538932
9.362,0.0349589980668937
9.364,0.0268867700897307
9.366,0.0199134529858649
9.368,0.0145372349964884
9.37,0.0108566443506153
9.372,0.00857054926508249
9.374,0.00736044143445785
9.376,0.00690781255330947
9.378,0.00689415431620538
9.38,0.00700095841771364
9.382,0.00691791906911415
9.384,0.0065233883660587
9.386,0.00588437628857097
9.388,0.00507609533338665
9.39,0.00417375799724118
9.392,0.00325257677687024
9.394,0.00238776416900932
9.396,0
9.398,0
9.4,0
9.402,0
9.404,0
9.406,0
9.408,0
9.41,0
9.412,0
9.414,0
9.416,0
9.418,0
9.42,0
9.422,0
9.424,0
9.426,0
9.428,0
9.43,0
9.432,0
9.434,0
9.436,0
9.438,0
9.44,0
9.442,0
9.444,0
9.446,0
9.448,0
9.45,0
9.452,0
9.454,0
9.456,0
9.458,0
9.46,0
9.462,0
9.464,0
9.466,0
9.468,0
9.47,0
9.472,0
9.474,0
9.476,0
9.478,0
9.48,0
9.482,0
9.484,0
9.486,0
9.488,0
9.49,0
9.492,0
9.494,0
9.496,0
9.498,0
9.5,0
9.502,0
9.504,0
9.506,0
9.508,0
9.51,0
9.512,0
9.514,0
9.516,0
9.518,0
9.52,0
9.522,0
9.524,0
9.526,0
9.528,0
9.53,0
9.532,0
9.534,0
9.536,0
9.538,0
9.54,0
9.542,0
9.544,0
9.546,0
9.548,0
9.55,0
9.552,0
9.554,0
9.556,0
9.558,0
9.56,0
9.562,0
9.564,0
9.566,0
9.568,0
9.57,0
9.572,0
9.574,0
9.576,0
9.578,0
9.58,0
9.582,0
9.584,0
9.586,0
9.588,0
9.59,0
9.592,0
9.594,0
9.596,0
9.598,0
9.6,0
9.602,0
9.604,0
9.606,0
9.608,0
9.61,0
9.612,0
9.614,0
9.616,0
9.618,0
9.62,0
9.622,0
9.624,0
9.626,0
9.628,0
9.63,0
9.632,-0.00708460711772357
9.634,-0.00875867789606505
9.636,-0.0097707094803553
9.638,-0.0100503433721833
9.64,-0.0095272210731378
9.642,-0.00813098408480784
9.644,-0.00579127390878231
9.646,-0.00243773204665004
9.648,0.002
9.65,0.00759228072957896
9.652,0.0144094686404979
9.654,0.0225219222311678
9.656,0.032
9.658,0.0426795580987543
9.66,0.0534584432925861
9.662,0.063
9.664,0.0703086533523926
9.666,0.0757531513327301
9.668,0.0800433226368714
9.67,0.0838889959606751
9.672,0.088
9.674,0.0928813623772117
9.676,0.0982189064207034
9.678,0.103493654385375
9.68,0.108186628526127
9.682,0.11177885109786
9.684,0.113769020525728
9.686,0.114062387150768
9.688,0.112970753229892
9.69,0.11082359719027
9.692,0.107950397459071
9.694,0.104680632463465
9.696,0.101322448742521
9.698,0.0976933594089958
9.7,0.0931202441493368
9.702,0.0869086507618899
9.704,0.0783641270450015
9.706,0.0668822379065784
9.708,0.0539289417744214
9.71,0.0429403503473251
9.712,0.0351370667089276
9.714,0.02943416821815
9.716,0.0246658413406259
9.718,0.0201113077210971
9.72,0.0154948241834132
9.722,0.010559996907037
9.724,0.00505043207143152
9.726,-0.00126930799882813
9.728,-0.00815266964158817
9.73,-0.0148711078571161
9.732,-0.0206751215005672
9.734,-0.0248404509021935
9.736,-0.0272233903194679
9.738,-0.0282607879370846
9.74,-0.0284147334148342
9.742,-0.0281473164125075
9.744,-0.0279110227506538
9.746,-0.0279374499472761
9.748,-0.0282373072178306
9.75,-0.0288116999385322
9.752,-0.0296617334855958
9.754,-0.0307885132352366
9.756,-0.0321931445636694
9.758,-0.0338708461454447
9.76,-0.0356814425168278
9.762,-0.0373493640757983
9.764,-0.0385931545186718
9.766,-0.0391313575417635
9.768,-0.0386825168413888
9.77,-0.0369941879126011
9.772,-0.0344811976214325
9.774,-0.0322256442048932
9.776,-0.0313386376987318
9.778,-0.0329312881386968
9.78,-0.0381147055605367
9.782,-0.048
9.784,-0.0626784974835354
9.786,-0.0781623880003917
9.788,-0.0894440775305174
9.79,-0.0915159720538615
9.792,-0.0793704775503728
9.794,-0.048
9.796,0.00787945198275486
9.798,0.0946574592451774
9.8,0.219
9.802,0.381817728105234
9.804,0.561000000000002
9.806,0.731376282654542
9.808,0.878557782582414
9.81,0.990851141183019
9.812,1.05656299985575
9.814,1.064
9.816,1.00488859171392
9.818,0.884634459890632
9.82,0.712063098122032
9.822,0.496
9.824,0.254558087983522
9.826,0.043
9.828,-0.0893680600355242
9.83,-0.154215339725855
9.832,-0.178454949553258
9.834,-0.189
9.836,-0.207222774035877
9.838,-0.232332244580807
9.84,-0.257996557042236
9.842,-0.277883856827612
9.844,-0.285662289344385
9.846,-0.275
9.848,-0.243436904532212
9.85,-0.204
9.852,-0.169825574630218
9.854,-0.139
9.856,-0.107510796946915
9.858,-0.078
9.86,-0.0537956915439227
9.862,-0.0343156316944211
9.864,-0.018
9.866,-0.00368003270056166
9.868,0.00824880719840165
9.87,0.0170000000000001
9.872,0.0220597302817335
9.874,0.024004999718662
9.876,0.0236855142602354
9.878,0.0219509798559031
9.88,0.0196511024551151
9.882,0.0176355880073211
9.884,0.0167297140094783
9.886,0.0171969035512132
9.888,0.0187387253148218
9.89,0.0210323195301075
9.892,0.0237548264268736
9.894,0.0265833862349236
9.896,0.0291951391840608
9.898,0.0312672255040886
9.9,0.0324905874761291
9.902,0.0328736145616375
9.904,0.0327421434024014
9.906,0.0324358126915276
9.908,0.0322942611221227
9.91,0.0326571273872933
9.912,0.033864050180146
9.914,0.0362546681937876
9.916,0.0401436841055604
9.918,0.0452722722302258
9.92,0.0508080785199653
9.922,0.0558938129111955
9.924,0.0596998208139116
9.926,0.0620320635304039
9.928,0.0633321182552582
9.93,0.0640691976566383
9.932,0.0647125144027081
9.934,0.0657312811616315
9.936,0.0675947106015724
9.938,0.0707720153906946
9.94,0.075707707542456
9.942,0.0822781840120751
9.944,0.0897917266965311
9.946,0.0975319168380971
9.948,0.104782335679046
9.95,0.110850674447582
9.952,0.115599154048302
9.954,0.119444525062197
9.956,0.122827648056189
9.958,0.1261893835972
9.96,0.129961074483104
9.962,0.134355154823714
9.964,0.139365150040776
9.966,0.144975067786991
9.968,0.151180214652303
9.97,0.15823577278326
9.972,0.166656799883013
9.974,0.176969652591957
9.976,0.189615019787096
9.978,0.203063231787402
9.98,0.213945376139752
9.982,0.221822535704069
9.984,0.229271456416719
9.986,0.239
9.988,0.252792250946704
9.99,0.268737184831612
9.992,0.284
9.994,0.296733016402373
9.996,0.309037040410155
9.998,0.324
10,0.3435530184195
10.002,0.365
10.004,0.38471751296214
10.006,0.4
10.008,0.409951929731939
10.01,0.42
10.012,0.434849768110105
10.014,0.45
10.016,0.460110519769421
10.018,0.465692175534234
10.02,0.468718571414336
10.022,0.471163311529625
10.024,0.475
10.026,0.481537130450361
10.028,0.489422754525623
10.03,0.496639813375705
10.032,0.501171248150525
10.034,0.501
10.036,0.494957174166807
10.038,0.485266532264652
10.04,0.475
10.042,0.466376167431725
10.044,0.458200282028347
10.046,0.448424255610795
10.048,0.435
10.05,0.416718057527356
10.052,0.395723492566117
10.054,0.375
10.056,0.356409315249406
10.058,0.337325335881468
10.06,0.314
10.062,0.284481119319851
10.064,0.254
10.066,0.227801351245305
10.068,0.204
10.07,0.180063475698928
10.072,0.158
10.074,0.14025968249682
10.076,0.12651949230269
10.078,0.115763113410835
10.08,0.106974229814481
10.082,0.0991530840322818
10.084,0.0916807646677251
10.086,0.084319206409132
10.088,0.0768469024702515
10.09,0.0690487177674925
10.092,0.0608560663784479
10.094,0.0523469115418942
10.096,0.0436145721538932
10.098,0.0349589980668937
10.1,0.0268867700897307
10.102,0.0199134529858649
10.104,0.0145372349964884
10.106,0.0108566443506153
10.108,0.00857054926508249
10.11,0.00736044143445785
10.112,0.00690781255330947
10.114,0.00689415431620538
10.116,0.00700095841771364
10.118,0.00691791906911415
10.12,0.0065233883660587
10.122,0.00588437628857097
10.124,0.00507609533338665
10.126,0.00417375799724118
10.128,0.00325257677687024
10.13,0.00238776416900932
10.132,0
10.134,0
10.136,0
10.138,0
10.14,0
10.142,0
10.144,0
10.146,0
10.148,0
10.15,0
10.152,0
10.154,0
10.156,0
10.158,0
10.16,0
10.162,0
10.164,0
10.166,0
10.168,0
10.17,0
10.172,0
10.174,0
10.176,0
10.178,0
10.18,0
10.182,0
10.184,0
10.186,0
10.188,0
10.19,0
10.192,0
10.194,0
10.196,0
10.198,0
10.2,0
10.202,0
10.204,0
10.206,0
10.208,0
10.21,0
10.212,0
10.214,0
10.216,0
10.218,0
10.22,0
10.222,0
10.224,0
10.226,0
10.228,0
10.23,0
10.232,0
10.234,0
10.236,0
10.238,0
10.24,0
10.242,0
10.244,0
10.246,0
10.248,0
10.25,0
10.252,0
10.254,0
10.256,0
10.258,0
10.26,0
10.262,0
10.264,0
10.266,0
10.268,0
10.27,0
10.272,0
10.274,0
10.276,0
10.278,0
10.28,0
10.282,0
10.284,0
10.286,0
10.288,0
10.29,0
10.292,0
10.294,0
10.296,0
10.298,0
10.3,0
10.302,0
10.304,0
10.306,0
10.308,0
10.31,0
10.312,0
10.314,0
10.316,0
10.318,0
10.32,0
10.322,0
10.324,0
10.326,0
10.328,0
10.33,0
10.332,0
10.334,0
10.336,0
10.338,0
10.34,0
10.342,0
10.344,0
10.346,0
10.348,0
10.35,0
10.352,0
10.354,0
10.356,0
10.358,0
10.36,0
10.362,0
10.364,-0.00708460711772357
10.366,-0.00875867789606505
10.368,-0.0097707094803553
10.37,-0.0100503433721833
10.372,-0.0095272210731378
10.374,-0.00813098408480784
10.376,-0.00579127390878231
10.378,-0.00243773204665004
10.38,0.002
10.382,0.00759228072957896
10.384,0.0144094686404979
10.386,0.0225219222311678
10.388,0.032
10.39,0.0426795580987543
10.392,0.0534584432925861
10.394,0.063
10.396,0.0703086533523926
10.398,0.0757531513327301
10.4,0.0800433226368714
10.402,0.0838889959606751
10.404,0.088
10.406,0.0928813623772117
10.408,0.0982189064207034
10.41,0.103493654385375
10.412,0.108186628526127
10.414,0.11177885109786
10.416,0.113769020525728
10.418,0.114062387150768
10.42,0.112970753229892
10.422,0.11082359719027
10.424,0.107950397459071
10.426,0.104680632463465
10.428,0.101322448742521
10.43,0.0976933594089958
10.432,0.0931202441493368
10.434,0.0869086507618899
10.436,0.0783641270450015
10.438,0.0668822379065784
10.44,0.0539289417744214
10.442,0.0429403503473251
10.444,0.0351370667089276
10.446,0.02943416821815
10.448,0.0246658413406259
10.45,0.0201113077210971
10.452,0.0154948241834132
10.454,0.010559996907037
10.456,0.00505043207143152
10.458,-0.00126930799882813
10.46,-0.00815266964158817
10.462,-0.0148711078571161
10.464,-0.0206751215005672
10.466,-0.0248404509021935
10.468,-0.0272233903194679
10.47,-0.0282607879370846
10.472,-0.0284147334148342
10.474,-0.0281473164125075
10.476,-0.0279110227506538
10.478,-0.0279374499472761
10.48,-0.0282373072178306
10.482,-0.0288116999385322
10.484,-0.0296617334855958
10.486,-0.0307885132352366
10.488,-0.0321931445636694
10.49,-0.0338708461454447
10.492,-0.0356814425168278
10.494,-0.0373493640757983
10.496,-0.0385931545186718
10.498,-0.0391313575417635
10.5,-0.0386825168413888
10.502,-0.0369941879126011
10.504,-0.0344811976214325
10.506,-0.0322256442048932
10.508,-0.0313386376987318
10.51,-0.0329312881386968
10.512,-0.0381147055605367
10.514,-0.048
10.516,-0.0626784974835354
10.518,-0.0781623880003917
10.52,-0.0894440775305174
10.522,-0.0915159720538615
10.524,-0.0793704775503728
10.526,-0.048
10.528,0.00787945198275486
10.53,0.0946574592451774
10.532,0.219
10.534,0.381817728105234
10.536,0.561000000000002
10.538,0.731376282654542
10.54,0.878557782582414
10.542,0.990851141183019
10.544,1.05656299985575
10.546,1.064
10.548,1.00488859171392
10.55,0.884634459890632
10.552,0.712063098122032
10.554,0.496
10.556,0.254558087983522
10.558,0.043
10.56,-0.0893680600355242
10.562,-0.154215339725855
10.564,-0.178454949553258
10.566,-0.189
10.568,-0.207222774035877
10.57,-0.232332244580807
10.572,-0.257996557042236
10.574,-0.277883856827612
10.576,-0.285662289344385
10.578,-0.275
10.58,-0.243436904532212
10.582,-0.204
10.584,-0.169825574630218
10.586,-0.139
10.588,-0.107510796946915
10.59,-0.078
10.592,-0.0537956915439227
10.594,-0.0343156316944211
10.596,-0.018
10.598,-0.00368003270056166
10.6,0.00824880719840165
10.602,0.0170000000000001
10.604,0.0220597302817335
10.606,0.024004999718662
10.608,0.0236855142602354
10.61,0.0219509798559031
10.612,0.0196511024551151
10.614,0.0176355880073211
10.616,0.0167297140094783
10.618,0.0171969035512132
10.62,0.0187387253148218
10.622,0.0210323195301075
10.624,0.0237548264268736
10.626,0.0265833862349236
10.628,0.0291951391840608
10.63,0.0312672255040886
10.632,0.0324905874761291
10.634,0.0328736145616375
10.636,0.0327421434024014
10.638,0.0324358126915276
10.64,0.0322942611221227
10.642,0.0326571273872933
10.644,0.033864050180146
10.646,0.0362546681937876
10.648,0.0401436841055604
10.65,0.0452722722302258
10.652,0.0508080785199653
10.654,0.0558938129111955
10.656,0.0596998208139116
10.658,0.0620320635304039
10.66,0.0633321182552582
10.662,0.0640691976566383
10.664,0.0647125144027081
10.666,0.0657312811616315
10.668,0.0675947106015724
10.67,0.0707720153906946
10.672,0.075707707542456
10.674,0.0822781840120751
10.676,0.0897917266965311
10.678,0.0975319168380971
10.68,0.104782335679046
10.682,0.110850674447582
10.684,0.115599154048302
10.686,0.119444525062197
10.688,0.122827648056189
10.69,0.1261893835972
10.692,0.129961074483104
10.694,0.134355154823714
10.696,0.139365150040776
10.698,0.144975067786991
10.7,0.151180214652303
10.702,0.15823577278326
10.704,0.166656799883013
10.706,0.176969652591957
10.708,0.189615019787096
10.71,0.203063231787402
10.712,0.213945376139752
10.714,0.221822535704069
10.716,0.229271456416719
10.718,0.239
10.72,0.252792250946704
10.722,0.268737184831612
10.724,0.284
10.726,0.296733016402373
10.728,0.309037040410155
10.73,0.324
10.732,0.3435530184195
10.734,0.365
10.736,0.38471751296214
10.738,0.4
10.74,0.409951929731939
10.742,0.42
10.744,0.434849768110105
10.746,0.45
10.748,0.460110519769421
10.75,0.465692175534234
10.752,0.468718571414336
10.754,0.471163311529625
10.756,0.475
10.758,0.481537130450361
10.76,0.489422754525623
10.762,0.496639813375705
10.764,0.501171248150525
10.766,0.501
10.768,0.494957174166807
10.77,0.485266532264652
10.772,0.475
10.774,0.466376167431725
10.776,0.458200282028347
10.778,0.448424255610795
10.78,0.435
10.782,0.416718057527356
10.784,0.395723492566117
10.786,0.375
10.788,0.356409315249406
10.79,0.337325335881468
10.792,0.314
10.794,0.284481119319851
10.796,0.254
10.798,0.227801351245305
10.8,0.204
10.802,0.180063475698928
10.804,0.158
10.806,0.14025968249682
10.808,0.12651949230269
10.81,0.115763113410835
10.812,0.106974229814481
10.814,0.0991530840322818
10.816,0.0916807646677251
10.818,0.084319206409132
10.82,0.0768469024702515
10.822,0.0690487177674925
10.824,0.0608560663784479
10.826,0.0523469115418942
10.828,0.0436145721538932
10.83,0.0349589980668937
10.832,0.0268867700897307
10.834,0.0199134529858649
10.836,0.0145372349964884
10.838,0.0108566443506153
10.84,0.00857054926508249
10.842,0.00736044143445785
10.844,0.00690781255330947
10.846,0.00689415431620538
10.848,0.00700095841771364
10.85,0.00691791906911415
10.852,0.0065233883660587
10.854,0.00588437628857097
10.856,0.00507609533338665
10.858,0.00417375799724118
10.86,0.00325257677687024
10.862,0.00238776416900932
10.864,0
10.866,0
10.868,0
10.87,0
10.872,0
10.874,0
10.876,0
10.878,0
10.88,0
10.882,0
10.884,0
10.886,0
10.888,0
10.89,0
10.892,0
10.894,0
10.896,0
10.898,0
10.9,0
10.902,0
10.904,0
10.906,0
10.908,0
10.91,0
10.912,0
10.914,0
10.916,0
10.918,0
10.92,0
10.922,0
10.924,0
10.926,0
10.928,0
10.93,0
10.932,0
10.934,0
10.936,0
10.938,0
10.94,0
10.942,0
10.944,0
10.946,0
10.948,0
10.95,0
10.952,0
10.954,0
10.956,0
10.958,0
10.96,0
10.962,0
10.964,0
10.966,0
10.968,0
10.97,0
10.972,0
10.974,0
10.976,0
10.978,0
10.98,0
10.982,0
10.984,0
10.986,0
10.988,0
10.99,0
10.992,0
10.994,0
10.996,0
10.998,0
11,0
11.002,0
11.004,0
11.006,0
11.008,0
11.01,0
11.012,0
11.014,0
11.016,0
11.018,0
11.02,0
11.022,0
11.024,0
11.026,0
11.028,0
11.03,0
11.032,0
11.034,0
11.036,0
11.038,0
11.04,0
11.042,0
11.044,0
11.046,0
11.048,0
11.05,0
11.052,0
11.054,0
11.056,0
11.058,0
11.06,0
11.062,0
11.064,0
11.066,0
11.068,0
11.07,0
11.072,0
11.074,0
11.076,0
11.078,0
11.08,0
11.082,0
11.084,0
11.086,0
11.088,0
11.09,0
11.092,0
11.094,-0.00708460711772357
11.096,-0.00875867789606505
11.098,-0.0097707094803553
11.1,-0.0100503433721833
11.102,-0.0095272210731378
11.104,-0.00813098408480784
11.106,-0.00579127390878231
11.108,-0.00243773204665004
11.11,0.002
11.112,0.00759228072957896
11.114,0.0144094686404979
11.116,0.0225219222311678
11.118,0.032
11.12,0.0426795580987543
11.122,0.0534584432925861
11.124,0.063
11.126,0.0703086533523926
11.128,0.0757531513327301
11.13,0.0800433226368714
11.132,0.0838889959606751
11.134,0.088
11.136,0.0928813623772117
11.138,0.0982189064207034
11.14,0.103493654385375
11.142,0.108186628526127
11.144,0.11177885109786
11.146,0.113769020525728
11.148,0.114062387150768
11.15,0.112970753229892
11.152,0.11082359719027
11.154,0.107950397459071
11.156,0.104680632463465
11.158,0.101322448742521
11.16,0.0976933594089958
11.162,0.0931202441493368
11.164,0.0869086507618899
11.166,0.0783641270450015
11.168,0.0668822379065784
11.17,0.0539289417744214
11.172,0.0429403503473251
11.174,0.0351370667089276
11.176,0.02943416821815
11.178,0.0246658413406259
11.18,0.0201113077210971
11.182,0.0154948241834132
11.184,0.010559996907037
11.186,0.00505043207143152
11.188,-0.00126930799882813
11.19,-0.00815266964158817
11.192,-0.0148711078571161
11.194,-0.0206751215005672
11.196,-0.0248404509021935
11.198,-0.0272233903194679
11.2,-0.0282607879370846
11.202,-0.0284147334148342
11.204,-0.0281473164125075
11.206,-0.0279110227506538
11.208,-0.0279374499472761
11.21,-0.0282373072178306
11.212,-0.0288116999385322
11.214,-0.0296617334855958
11.216,-0.0307885132352366
11.218,-0.0321931445636694
11.22,-0.0338708461454447
11.222,-0.0356814425168278
11.224,-0.0373493640757983
11.226,-0.0385931545186718
11.228,-0.0391313575417635
11.23,-0.0386825168413888
11.232,-0.0369941879126011
11.234,-0.0344811976214325
11.236,-0.0322256442048932
11.238,-0.0313386376987318
11.24,-0.0329312881386968
11.242,-0.0381147055605367
11.244,-0.048
11.246,-0.0626784974835354
11.248,-0.0781623880003917
11.25,-0.0894440775305174
11.252,-0.0915159720538615
11.254,-0.0793704775503728
11.256,-0.048
11.258,0.00787945198275486
11.26,0.0946574592451774
11.262,0.219
11.264,0.381817728105234
11.266,0.561000000000002
11.268,0.731376282654542
11.27,0.878557782582414
11.272,0.990851141183019
11.274,1.05656299985575
11.276,1.064
11.278,1.00488859171392
11.28,0.884634459890632
11.282,0.712063098122032
11.284,0.496
11.286,0.254558087983522
11.288,0.043
11.29,-0.0893680600355242
11.292,-0.154215339725855
11.294,-0.178454949553258
11.296,-0.189
11.298,-0.207222774035877
11.3,-0.232332244580807
11.302,-0.257996557042236
11.304,-0.277883856827612
11.306,-0.285662289344385
11.308,-0.275
11.31,-0.243436904532212
11.312,-0.204
11.314,-0.169825574630218
11.316,-0.139
11.318,-0.107510796946915
11.32,-0.078
11.322,-0.0537956915439227
11.324,-0.0343156316944211
11.326,-0.018
11.328,-0.00368003270056166
11.33,0.00824880719840165
11.332,0.0170000000000001
11.334,0.0220597302817335
11.336,0.024004999718662
11.338,0.0236855142602354
11.34,0.0219509798559031
11.342,0.0196511024551151
11.344,0.0176355880073211
11.346,0.0167297140094783
11.348,0.0171969035512132
11.35,0.0187387253148218
11.352,0.0210323195301075
11.354,0.0237548264268736
11.356,0.0265833862349236
11.358,0.0291951391840608
11.36,0.0312672255040886
11.362,0.0324905874761291
11.364,0.0328736145616375
11.366,0.0327421434024014
11.368,0.0324358126915276
11.37,0.0322942611221227
11.372,0.0326571273872933
11.374,0.033864050180146
11.376,0.0362546681937876
11.378,0.0401436841055604
11.38,0.0452722722302258
11.382,0.0508080785199653
11.384,0.0558938129111955
11.386,0.0596998208139116
11.388,0.0620320635304039
11.39,0.0633321182552582
11.392,0.0640691976566383
11.394,0.0647125144027081
11.396,0.0657312811616315
11.398,0.0675947106015724
11.4,0.0707720153906946
11.402,0.075707707542456
11.404,0.0822781840120751
11.406,0.0897917266965311
11.408,0.0975319168380971
11.41,0.104782335679046
11.412,0.110850674447582
11.414,0.115599154048302
11.416,0.119444525062197
11.418,0.122827648056189
11.42,0.1261893835972
11.422,0.129961074483104
11.424,0.134355154823714
11.426,0.139365150040776
11.428,0.144975067786991
11.43,0.151180214652303
11.432,0.15823577278326
11.434,0.166656799883013
11.436,0.176969652591957
11.438,0.189615019787096
11.44,0.203063231787402
11.442,0.213945376139752
11.444,0.221822535704069
11.446,0.229271456416719
11.448,0.239
11.45,0.252792250946704
11.452,0.268737184831612
11.454,0.284
11.456,0.296733016402373
11.458,0.309037040410155
11.46,0.324
11.462,0.3435530184195
11.464,0.365
11.466,0.38471751296214
11.468,0.4
11.47,0.409951929731939
11.472,0.42
11.474,0.434849768110105
11.476,0.45
11.478,0.460110519769421
11.48,0.465692175534234
11.482,0.468718571414336
11.484,0.471163311529625
11.486,0.475
11.488,0.481537130450361
11.49,0.489422754525623
11.492,0.496639813375705
11.494,0.501171248150525
11.496,0.501
11.498,0.494957174166807
11.5,0.485266532264652
11.502,0.475
11.504,0.466376167431725
11.506,0.458200282028347
11.508,0.448424255610795
11.51,0.435
11.512,0.416718057527356
11.514,0.395723492566117
11.516,0.375
11.518,0.356409315249406
11.52,0.337325335881468
11.522,0.314
11.524,0.284481119319851
11.526,0.254
11.528,0.227801351245305
11.53,0.204
11.532,0.180063475698928
11.534,0.158
11.536,0.14025968249682
11.538,0.12651949230269
11.54,0.115763113410835
11.542,0.106974229814481
11.544,0.0991530840322818
11.546,0.0916807646677251
11.548,0.084319206409132
11.55,0.0768469024702515
11.552,0.0690487177674925
11.554,0.0608560663784479
11.556,0.0523469115418942
11.558,0.0436145721538932
11.56,0.0349589980668937
11.562,0.0268867700897307
11.564,0.0199134529858649
11.566,0.0145372349964884
11.568,0.0108566443506153
11.57,0.00857054926508249
11.572,0.00736044143445785
11.574,0.00690781255330947
11.576,0.00689415431620538
11.578,0.00700095841771364
11.58,0.00691791906911415
11.582,0.0065233883660587
11.584,0.00588437628857097
11.586,0.00507609533338665
11.588,0.00417375799724118
11.59,0.00325257677687024
11.592,0.00238776416900932
11.594,0
11.596,0
11.598,0
11.6,0
11.602,0
11.604,0
11.606,0
11.608,0
11.61,0
11.612,0
11.614,0
11.616,0
11.618,0
11.62,0
11.622,0
11.624,0
11.626,0
11.628,0
11.63,0
11.632,0
11.634,0
11.636,0
11.638,0
11.64,0
11.642,0
11.644,0
11.646,0
11.648,0
11.65,0
11.652,0
11.654,0
11.656,0
11.658,0
11.66,0
11.662,0
11.664,0
11.666,0
11.668,0
11.67,0
11.672,0
11.674,0
11.676,0
11.678,0
11.68,0
11.682,0
11.684,0
11.686,0
11.688,0
11.69,0
11.692,0
11.694,0
11.696,0
11.698,0
11.7,0
11.702,0
11.704,0
11.706,0
11.708,0
11.71,0
11.712,0
11.714,0
11.716,0
11.718,0
11.72,0
11.722,0
11.724,0
11.726,0
11.728,0
11.73,0
11.732,0
11.734,0
11.736,0
11.738,0
11.74,0
11.742,0
11.744,0
11.746,0
11.748,0
11.75,0
11.752,0
11.754,0
11.756,0
11.758,0
11.76,0
11.762,0
11.764,0
11.766,0
11.768,0
11.77,0
11.772,0
11.774,0
11.776,0
11.778,0
11.78,0
11.782,0
11.784,0
11.786,0
11.788,0
11.79,0
11.792,0
11.794,0
11.796,0
11.798,0
11.8,0
11.802,0
11.804,0
11.806,0
11.808,0
11.81,0
11.812,0
11.814,0
11.816,0
11.818,0
11.82,0
11.822,0
11.824,-0.00708460711772357
11.826,-0.00875867789606505
11.828,-0.0097707094803553
11.83,-0.0100503433721833
11.832,-0.0095272210731378
11.834,-0.00813098408480784
11.836,-0.00579127390878231
11.838,-0.00243773204665004
11.84,0.002
11.842,0.00759228072957896
11.844,0.0144094686404979
11.846,0.0225219222311678
11.848,0.032
11.85,0.0426795580987543
11.852,0.0534584432925861
11.854,0.063
11.856,0.0703086533523926
11.858,0.0757531513327301
11.86,0.0800433226368714
11.862,0.0838889959606751
11.864,0.088
11.866,0.0928813623772117
11.868,0.0982189064207034
11.87,0.103493654385375
11.872,0.108186628526127
11.874,0.11177885109786
11.876,0.113769020525728
11.878,0.114062387150768
11.88,0.112970753229892
11.882,0.11082359719027
11.884,0.107950397459071
11.886,0.104680632463465
11.888,0.101322448742521
11.89,0.0976933594089958
11.892,0.0931202441493368
11.894,0.0869086507618899
11.896,0.0783641270450015
11.898,0.0668822379065784
11.9,0.0539289417744214
11.902,0.0429403503473251
11.904,0.0351370667089276
11.906,0.02943416821815
11.908,0.0246658413406259
11.91,0.0201113077210971
11.912,0.0154948241834132
11.914,0.010559996907037
11.916,0.00505043207143152
11.918,-0.00126930799882813
11.92,-0.00815266964158817
11.922,-0.0148711078571161
11.924,-0.0206751215005672
11.926,-0.0248404509021935
11.928,-0.0272233903194679
11.93,-0.0282607879370846
11.932,-0.0284147334148342
11.934,-0.0281473164125075
11.936,-0.0279110227506538
11.938,-0.0279374499472761
11.94,-0.0282373072178306
11.942,-0.0288116999385322
11.944,-0.0296617334855958
11.946,-0.0307885132352366
11.948,-0.0321931445636694
11.95,-0.0338708461454447
11.952,-0.0356814425168278
11.954,-0.0373493640757983
11.956,-0.0385931545186718
11.958,-0.0391313575417635
11.96,-0.0386825168413888
11.962,-0.0369941879126011
11.964,-0.0344811976214325
11.966,-0.0322256442048932
11.968,-0.0313386376987318
11.97,-0.0329312881386968
11.972,-0.0381147055605367
11.974,-0.048
11.976,-0.0626784974835354
11.978,-0.0781623880003917
11.98,-0.0894440775305174
11.982,-0.0915159720538615
11.984,-0.0793704775503728
11.986,-0.048
11.988,0.00787945198275486
11.99,0.0946574592451774
11.992,0.219
11.994,0.381817728105234
11.996,0.561000000000002
11.998,0.731376282654542
12,0.878557782582414
12.002,0.990851141183019
12.004,1.05656299985575
12.006,1.064
12.008,1.00488859171392
12.01,0.884634459890632
12.012,0.712063098122032
12.014,0.496
12.016,0.254558087983522
12.018,0.043
12.02,-0.0893680600355242
12.022,-0.154215339725855
12.024,-0.178454949553258
12.026,-0.189
12.028,-0.207222774035877
12.03,-0.232332244580807
12.032,-0.257996557042236
12.034,-0.277883856827612
12.036,-0.285662289344385
12.038,-0.275
12.04,-0.243436904532212
12.042,-0.204
12.044,-0.169825574630218
12.046,-0.139
12.048,-0.107510796946915
12.05,-0.078
12.052,-0.0537956915439227
12.054,-0.0343156316944211
12.056,-0.018
12.058,-0.00368003270056166
12.06,0.00824880719840165
12.062,0.0170000000000001
12.064,0.0220597302817335
12.066,0.024004999718662
12.068,0.0236855142602354
12.07,0.0219509798559031
12.072,0.0196511024551151
12.074,0.0176355880073211
12.076,0.0167297140094783
12.078,0.0171969035512132
12.08,0.0187387253148218
12.082,0.0210323195301075
12.084,0.0237548264268736
12.086,0.0265833862349236
12.088,0.0291951391840608
12.09,0.0312672255040886
12.092,0.0324905874761291
12.094,0.0328736145616375
12.096,0.0327421434024014
12.098,0.0324358126915276
12.1,0.0322942611221227
12.102,0.0326571273872933
12.104,0.033864050180146
12.106,0.0362546681937876
12.108,0.0401436841055604
12.11,0.0452722722302258
12.112,0.0508080785199653
12.114,0.0558938129111955
12.116,0.0596998208139116
12.118,0.0620320635304039
12.12,0.0633321182552582
12.122,0.0640691976566383
12.124,0.0647125144027081
12.126,0.0657312811616315
12.128,0.0675947106015724
12.13,0.0707720153906946
12.132,0.075707707542456
12.134,0.0822781840120751
12.136,0.0897917266965311
12.138,0.0975319168380971
12.14,0.104782335679046
12.142,0.110850674447582
12.144,0.115599154048302
12.146,0.119444525062197
12.148,0.122827648056189
12.15,0.1261893835972
12.152,0.129961074483104
12.154,0.134355154823714
12.156,0.139365150040776
12.158,0.144975067786991
12.16,0.151180214652303
12.162,0.15823577278326
12.164,0.166656799883013
12.166,0.176969652591957
12.168,0.189615019787096
12.17,0.203063231787402
12.172,0.213945376139752
12.174,0.221822535704069
12.176,0.229271456416719
12.178,0.239
12.18,0.252792250946704
12.182,0.268737184831612
12.184,0.284
12.186,0.296733016402373
12.188,0.309037040410155
12.19,0.324
12.192,0.3435530184195
12.194,0.365
12.196,0.38471751296214
12.198,0.4
12.2,0.409951929731939
12.202,0.42
12.204,0.434849768110105
12.206,0.45
12.208,0.460110519769421
12.21,0.465692175534234
12.212,0.468718571414336
12.214,0.471163311529625
12.216,0.475
12.218,0.481537130450361
12.22,0.489422754525623
12.222,0.496639813375705
12.224,0.501171248150525
12.226,0.501
12.228,0.494957174166807
12.23,0.485266532264652
12.232,0.475
12.234,0.466376167431725
12.236,0.458200282028347
12.238,0.448424255610795
12.24,0.435
12.242,0.416718057527356
12.244,0.395723492566117
12.246,0.375
12.248,0.356409315249406
12.25,0.337325335881468
12.252,0.314
12.254,0.284481119319851
12.256,0.254
12.258,0.227801351245305
12.26,0.204
12.262,0.180063475698928
12.264,0.158
12.266,0.14025968249682
12.268,0.12651949230269
12.27,0.115763113410835
12.272,0.106974229814481
12.274,0.0991530840322818
12.276,0.0916807646677251
12.278,0.084319206409132
12.28,0.0768469024702515
12.282,0.0690487177674925
12.284,0.0608560663784479
12.286,0.0523469115418942
12.288,0.0436145721538932
12.29,0.0349589980668937
12.292,0.0268867700897307
12.294,0.0199134529858649
12.296,0.0145372349964884
12.298,0.0108566443506153
12.3,0.00857054926508249
12.302,0.00736044143445785
12.304,0.00690781255330947
12.306,0.00689415431620538
12.308,0.00700095841771364
12.31,0.00691791906911415
12.312,0.0065233883660587
12.314,0.00588437628857097
12.316,0.00507609533338665
12.318,0.00417375799724118
12.32,0.00325257677687024
12.322,0.00238776416900932
12.324,0
12.326,0
12.328,0
12.33,0
12.332,0
12.334,0
12.336,0
12.338,0
12.34,0
12.342,0
12.344,0
12.346,0
12.348,0
12.35,0
12.352,0
12.354,0
12.356,0
12.358,0
12.36,0
12.362,0
12.364,0
12.366,0
12.368,0
12.37,0
12.372,0
12.374,0
12.376,0
12.378,0
12.38,0
12.382,0
12.384,0
12.386,0
12.388,0
12.39,0
12.392,0
12.394,0
12.396,0
12.398,0
12.4,0
12.402,0
12.404,0
12.406,0
12.408,0
12.41,0
12.412,0
12.414,0
12.416,0
12.418,0
12.42,0
12.422,0
12.424,0
12.426,0
12.428,0
12.43,0
12.432,0
12.434,0
12.436,0
12.438,0
12.44,0
12.442,0
12.444,0
12.446,0
12.448,0
12.45,0
12.452,0
12.454,0
12.456,0
12.458,0
12.46,0
12.462,0
12.464,0
12.466,0
12.468,0
12.47,0
12.472,0
12.474,0
12.476,0
12.478,0
12.48,0
12.482,0
12.484,0
12.486,0
12.488,0
12.49,0
12.492,0
12.494,0
12.496,0
12.498,0
12.5,0
12.502,0
12.504,0
12.506,0
12.508,0
12.51,0
12.512,0
12.514,0
12.516,0
12.518,0
12.52,0
12.522,0
12.524,0
12.526,0
12.528,0
12.53,0
12.532,0
12.534,0
12.536,0
12.538,0
12.54,0
12.542,0
12.544,0
12.546,0
12.548,0
12.55,0
12.552,0
12.554,-0.00708460711772357
12.556,-0.00875867789606505
12.558,-0.0097707094803553
12.56,-0.0100503433721833
12.562,-0.0095272210731378
12.564,-0.00813098408480784
12.566,-0.00579127390878231
12.568,-0.00243773204665004
12.57,0.002
12.572,0.00759228072957896
12.574,0.0144094686404979
12.576,0.0225219222311678
12.578,0.032
12.58,0.0426795580987543
12.582,0.0534584432925861
12.584,0.063
12.586,0.0703086533523926
12.588,0.0757531513327301
12.59,0.0800433226368714
12.592,0.0838889959606751
12.594,0.088
12.596,0.0928813623772117
12.598,0.0982189064207034
12.6,0.103493654385375
12.602,0.108186628526127
12.604,0.11177885109786
12.606,0.113769020525728
12.608,0.114062387150768
12.61,0.112970753229892
12.612,0.11082359719027
12.614,0.107950397459071
12.616,0.104680632463465
12.618,0.101322448742521
12.62,0.0976933594089958
12.622,0.0931202441493368
12.624,0.0869086507618899
12.626,0.0783641270450015
12.628,0.0668822379065784
12.63,0.0539289417744214
12.632,0.0429403503473251
12.634,0.0351370667089276
12.636,0.02943416821815
12.638,0.0246658413406259
12.64,0.0201113077210971
12.642,0.0154948241834132
12.644,0.010559996907037
12.646,0.00505043207143152
12.648,-0.00126930799882813
12.65,-0.00815266964158817
12.652,-0.0148711078571161
12.654,-0.0206751215005672
12.656,-0.0248404509021935
12.658,-0.0272233903194679
12.66,-0.0282607879370846
12.662,-0.0284147334148342
12.664,-0.0281473164125075
12.666,-0.0279110227506538
12.668,-0.0279374499472761
12.67,-0.0282373072178306
12.672,-0.0288116999385322
12.674,-0.0296617334855958
12.676,-0.0307885132352366
12.678,-0.0321931445636694
12.68,-0.0338708461454447
12.682,-0.0356814425168278
12.684,-0.0373493640757983
12.686,-0.0385931545186718
12.688,-0.0391313575417635
12.69,-0.0386825168413888
12.692,-0.0369941879126011
12.694,-0.0344811976214325
12.696,-0.0322256442048932
12.698,-0.0313386376987318
12.7,-0.0329312881386968
12.702,-0.0381147055605367
12.704,-0.048
12.706,-0.0626784974835354
12.708,-0.0781623880003917
12.71,-0.0894440775305174
12.712,-0.0915159720538615
12.714,-0.0793704775503728
12.716,-0.048
12.718,0.00787945198275486
12.72,0.0946574592451774
12.722,0.219
12.724,0.381817728105234
12.726,0.561000000000002
12.728,0.731376282654542
12.73,0.878557782582414
12.732,0.990851141183019
12.734,1.05656299985575
12.736,1.064
12.738,1.00488859171392
12.74,0.884634459890632
12.742,0.712063098122032
12.744,0.496
12.746,0.254558087983522
12.748,0.043
12.75,-0.0893680600355242
12.752,-0.154215339725855
12.754,-0.178454949553258
12.756,-0.189
12.758,-0.207222774035877
12.76,-0.232332244580807
12.762,-0.257996557042236
12.764,-0.277883856827612
12.766,-0.285662289344385
12.768,-0.275
12.77,-0.243436904532212
12.772,-0.204
12.774,-0.169825574630218
12.776,-0.139
12.778,-0.107510796946915
12.78,-0.078
12.782,-0.0537956915439227
12.784,-0.0343156316944211
12.786,-0.018
12.788,-0.00368003270056166
12.79,0.00824880719840165
12.792,0.0170000000000001
12.794,0.0220597302817335
12.796,0.024004999718662
12.798,0.0236855142602354
12.8,0.0219509798559031
12.802,0.0196511024551151
12.804,0.0176355880073211
12.806,0.0167297140094783
12.808,0.0171969035512132
12.81,0.0187387253148218
12.812,0.0210323195301075
12.814,0.0237548264268736
12.816,0.0265833862349236
12.818,0.0291951391840608
12.82,0.0312672255040886
12.822,0.0324905874761291
12.824,0.0328736145616375
12.826,0.0327421434024014
12.828,0.0324358126915276
12.83,0.0322942611221227
12.832,0.0326571273872933
12.834,0.033864050180146
12.836,0.0362546681937876
12.838,0.0401436841055604
12.84,0.0452722722302258
12.842,0.0508080785199653
12.844,0.0558938129111955
12.846,0.0596998208139116
12.848,0.0620320635304039
12.85,0.0633321182552582
12.852,0.0640691976566383
12.854,0.0647125144027081
12.856,0.0657312811616315
12.858,0.0675947106015724
12.86,0.0707720153906946
12.862,0.075707707542456
12.864,0.0822781840120751
12.866,0.0897917266965311
12.868,0.0975319168380971
12.87,0.104782335679046
12.872,0.110850674447582
12.874,0.115599154048302
12.876,0.119444525062197
12.878,0.122827648056189
12.88,0.1261893835972
12.882,0.129961074483104
12.884,0.134355154823714
12.886,0.139365150040776
12.888,0.144975067786991
12.89,0.151180214652303
12.892,0.15823577278326
12.894,0.166656799883013
12.896,0.176969652591957
12.898,0.189615019787096
12.9,0.203063231787402
12.902,0.213945376139752
12.904,0.221822535704069
12.906,0.229271456416719
12.908,0.239
12.91,0.252792250946704
12.912,0.268737184831612
12.914,0.284
12.916,0.296733016402373
12.918,0.309037040410155
12.92,0.324
12.922,0.3435530184195
12.924,0.365
12.926,0.38471751296214
12.928,0.4
12.93,0.409951929731939
12.932,0.42
12.934,0.434849768110105
12.936,0.45
12.938,0.460110519769421
12.94,0.465692175534234
12.942,0.468718571414336
12.944,0.471163311529625
12.946,0.475
12.948,0.481537130450361
12.95,0.489422754525623
12.952,0.496639813375705
12.954,0.501171248150525
12.956,0.501
12.958,0.494957174166807
12.96,0.485266532264652
12.962,0.475
12.964,0.466376167431725
12.966,0.458200282028347
12.968,0.448424255610795
12.97,0.435
12.972,0.416718057527356
12.974,0.395723492566117
12.976,0.375
12.978,0.356409315249406
12.98,0.337325335881468
12.982,0.314
12.984,0.284481119319851
12.986,0.254
12.988,0.227801351245305
12.99,0.204
12.992,0.180063475698928
12.994,0.158
12.996,0.14025968249682
12.998,0.12651949230269
13,0.115763113410835
13.002,0.106974229814481
13.004,0.0991530840322818
13.006,0.0916807646677251
13.008,0.084319206409132
13.01,0.0768469024702515
13.012,0.0690487177674925
13.014,0.0608560663784479
13.016,0.0523469115418942
13.018,0.0436145721538932
13.02,0.0349589980668937
13.022,0.0268867700897307
13.024,0.0199134529858649
13.026,0.0145372349964884
13.028,0.0108566443506153
13.03,0.00857054926508249
13.032,0.00736044143445785
13.034,0.00690781255330947
13.036,0.00689415431620538
13.038,0.00700095841771364
13.04,0.00691791906911415
13.042,0.0065233883660587
13.044,0.00588437628857097
13.046,0.00507609533338665
13.048,0.00417375799724118
13.05,0.00325257677687024
13.052,0.00238776416900932
13.054,0
13.056,0
13.058,0
13.06,0
13.062,0
13.064,0
13.066,0
13.068,0
13.07,0
13.072,0
13.074,0
13.076,0
13.078,0
13.08,0
13.082,0
13.084,0
13.086,0
13.088,0
13.09,0
13.092,0
13.094,0
13.096,0
13.098,0
13.1,0
13.102,0
13.104,0
13.106,0
13.108,0
13.11,0
13.112,0
13.114,0
13.116,0
13.118,0
13.12,0
13.122,0
13.124,0
13.126,0
13.128,0
13.13,0
13.132,0
13.134,0
13.136,0
13.138,0
13.14,0
13.142,0
13.144,0
13.146,0
13.148,0
13.15,0
13.152,0
13.154,0
13.156,0
13.158,0
13.16,0
13.162,0
13.164,0
13.166,0
13.168,0
13.17,0
13.172,0
13.174,0
13.176,0
13.178,0
13.18,0
13.182,0
13.184,0
13.186,0
13.188,0
13.19,0
13.192,0
13.194,0
13.196,0
13.198,0
13.2,0
13.202,0
13.204,0
13.206,0
13.208,0
13.21,0
13.212,0
13.214,0
13.216,0
13.218,0
13.22,0
13.222,0
13.224,0
13.226,0
13.228,0
13.23,0
13.232,0
13.234,0
13.236,0
13.238,0
13.24,0
13.242,0
13.244,0
13.246,0
13.248,0
13.25,0
13.252,0
13.254,0
13.256,0
13.258,0
13.26,0
13.262,0
13.264,0
13.266,0
13.268,0
13.27,0
13.272,0
13.274,0
13.276,0
13.278,0
13.28,0
13.282,0
13.284,0
13.286,-0.00708460711772357
13.288,-0.00875867789606505
13.29,-0.0097707094803553
13.292,-0.0100503433721833
13.294,-0.0095272210731378
13.296,-0.00813098408480784
13.298,-0.00579127390878231
13.3,-0.00243773204665004
13.302,0.002
13.304,0.00759228072957896
13.306,0.0144094686404979
13.308,0.0225219222311678
13.31,0.032
13.312,0.0426795580987543
13.314,0.0534584432925861
13.316,0.063
13.318,0.0703086533523926
13.32,0.0757531513327301
13.322,0.0800433226368714
13.324,0.0838889959606751
13.326,0.088
13.328,0.0928813623772117
13.33,0.0982189064207034
13.332,0.103493654385375
13.334,0.108186628526127
13.336,0.11177885109786
13.338,0.113769020525728
13.34,0.114062387150768
13.342,0.112970753229892
13.344,0.11082359719027
13.346,0.107950397459071
13.348,0.104680632463465
13.35,0.101322448742521
13.352,0.0976933594089958
13.354,0.0931202441493368
13.356,0.0869086507618899
13.358,0.0783641270450015
13.36,0.0668822379065784
13.362,0.0539289417744214
13.364,0.0429403503473251
13.366,0.0351370667089276
13.368,0.02943416821815
13.37,0.0246658413406259
13.372,0.0201113077210971
13.374,0.0154948241834132
13.376,0.010559996907037
13.378,0.00505043207143152
13.38,-0.00126930799882813
13.382,-0.00815266964158817
13.384,-0.0148711078571161
13.386,-0.0206751215005672
13.388,-0.0248404509021935
13.39,-0.0272233903194679
13.392,-0.0282607879370846
13.394,-0.0284147334148342
13.396,-0.0281473164125075
13.398,-0.0279110227506538
13.4,-0.0279374499472761
13.402,-0.0282373072178306
13.404,-0.0288116999385322
13.406,-0.0296617334855958
13.408,-0.0307885132352366
13.41,-0.0321931445636694
13.412,-0.0338708461454447
13.414,-0.0356814425168278
13.416,-0.0373493640757983
13.418,-0.0385931545186718
13.42,-0.0391313575417635
13.422,-0.0386825168413888
13.424,-0.0369941879126011
13.426,-0.0344811976214325
13.428,-0.0322256442048932
13.43,-0.0313386376987318
13.432,-0.0329312881386968
13.434,-0.0381147055605367
13.436,-0.048
13.438,-0.0626784974835354
13.44,-0.0781623880003917
13.442,-0.0894440775305174
13.444,-0.0915159720538615
13.446,-0.0793704775503728
13.448,-0.048
13.45,0.00787945198275486
13.452,0.0946574592451774
13.454,0.219
13.456,0.381817728105234
13.458,0.561000000000002
13.46,0.731376282654542
13.462,0.878557782582414
13.464,0.990851141183019
13.466,1.05656299985575
13.468,1.064
13.47,1.00488859171392
13.472,0.884634459890632
13.474,0.712063098122032
13.476,0.496
13.478,0.254558087983522
13.48,0.043
13.482,-0.0893680600355242
13.484,-0.154215339725855
13.486,-0.178454949553258
13.488,-0.189
13.49,-0.207222774035877
13.492,-0.232332244580807
13.494,-0.257996557042236
13.496,-0.277883856827612
13.498,-0.285662289344385
13.5,-0.275
13.502,-0.243436904532212
13.504,-0.204
13.506,-0.169825574630218
13.508,-0.139
13.51,-0.107510796946915
13.512,-0.078
13.514,-0.0537956915439227
13.516,-0.0343156316944211
13.518,-0.018
13.52,-0.00368003270056166
13.522,0.00824880719840165
13.524,0.0170000000000001
13.526,0.0220597302817335
13.528,0.024004999718662
13.53,0.0236855142602354
13.532,0.0219509798559031
13.534,0.0196511024551151
13.536,0.0176355880073211
13.538,0.0167297140094783
13.54,0.0171969035512132
13.542,0.0187387253148218
13.544,0.0210323195301075
13.546,0.0237548264268736
13.548,0.0265833862349236
13.55,0.0291951391840608
13.552,0.0312672255040886
13.554,0.0324905874761291
13.556,0.0328736145616375
13.558,0.0327421434024014
13.56,0.0324358126915276
13.562,0.0322942611221227
13.564,0.0326571273872933
13.566,0.033864050180146
13.568,0.0362546681937876
13.57,0.0401436841055604
13.572,0.0452722722302258
13.574,0.0508080785199653
13.576,0.0558938129111955
13.578,0.0596998208139116
13.58,0.0620320635304039
13.582,0.0633321182552582
13.584,0.0640691976566383
13.586,0.0647125144027081
13.588,0.0657312811616315
13.59,0.0675947106015724
13.592,0.0707720153906946
13.594,0.075707707542456
13.596,0.0822781840120751
13.598,0.0897917266965311
13.6,0.0975319168380971
13.602,0.104782335679046
13.604,0.110850674447582
13.606,0.115599154048302
13.608,0.119444525062197
13.61,0.122827648056189
13.612,0.1261893835972
13.614,0.129961074483104
13.616,0.134355154823714
13.618,0.139365150040776
13.62,0.144975067786991
13.622,0.151180214652303
13.624,0.15823577278326
13.626,0.166656799883013
13.628,0.176969652591957
13.63,0.189615019787096
13.632,0.203063231787402
13.634,0.213945376139752
13.636,0.221822535704069
13.638,0.229271456416719
13.64,0.239
13.642,0.252792250946704
13.644,0.268737184831612
13.646,0.284
13.648,0.296733016402373
13.65,0.309037040410155
13.652,0.324
13.654,0.3435530184195
13.656,0.365
13.658,0.38471751296214
13.66,0.4
13.662,0.409951929731939
13.664,0.42
13.666,0.434849768110105
13.668,0.45
13.67,0.460110519769421
13.672,0.465692175534234
13.674,0.468718571414336
13.676,0.471163311529625
13.678,0.475
13.68,0.481537130450361
13.682,0.489422754525623
13.684,0.496639813375705
13.686,0.501171248150525
13.688,0.501
13.69,0.494957174166807
13.692,0.485266532264652
13.694,0.475
13.696,0.466376167431725
13.698,0.458200282028347
13.7,0.448424255610795
13.702,0.435
13.704,0.416718057527356
13.706,0.395723492566117
13.708,0.375
13.71,0.356409315249406
13.712,0.337325335881468
13.714,0.314
13.716,0.284481119319851
13.718,0.254
13.72,0.227801351245305
13.722,0.204
13.724,0.180063475698928
13.726,0.158
13.728,0.14025968249682
13.73,0.12651949230269
13.732,0.115763113410835
13.734,0.106974229814481
13.736,0.0991530840322818
13.738,0.0916807646677251
13.74,0.084319206409132
13.742,0.0768469024702515
13.744,0.0690487177674925
13.746,0.0608560663784479
13.748,0.0523469115418942
13.75,0.0436145721538932
13.752,0.0349589980668937
13.754,0.0268867700897307
13.756,0.0199134529858649
